-0.052712
-0.014367
0.024586
0.049106
0.068864
0.062699
0.047857
0.034120
-0.001988
-0.049591
-0.079182
-0.133971
-0.162801
-0.209020
-0.235494
-0.240120
-0.225738
-0.210919
-0.182832
-0.151308
-0.098930
-0.061976
-0.025258
0.005720
0.027094
0.022114
0.020613
-0.004840
-0.034587
-0.074998
-0.120177
-0.174048
-0.207577
-0.236197
-0.258134
-0.262433
-0.254648
-0.241168
-0.212236
-0.167170
-0.127147
-0.088854
-0.029676
0.008906
0.029159
0.032478
0.020933
0.003395
-0.026440
-0.065285
-0.113960
-0.168107
-0.201010
-0.237331
-0.250740
-0.262888
-0.256285
-0.240847
-0.200327
-0.149708
-0.100725
-0.062331
-0.010840
0.018587
0.047574
0.057544
0.043577
0.014419
-0.013803
-0.036342
-0.093008
-0.140243
-0.173416
-0.211482
-0.221103
-0.230872
-0.223176
-0.214212
-0.191109
-0.143022
-0.094400
-0.046684
-0.008674
0.024900
0.053245
0.054243
0.049794
0.044453
0.022266
-0.011000
-0.054914
-0.119651
-0.175979
-0.206282
-0.223215
-0.221631
-0.195773
-0.155928
-0.113813
-0.078424
-0.045983
-0.006537
0.029607
0.048751
0.097078
0.110276
0.094511
0.064702
0.036126
0.003882
-0.044615
-0.083586
-0.113863
-0.140275
-0.153047
-0.175057
-0.164921
-0.128243
-0.094823
-0.059378
-0.020096
0.031984
0.070816
0.110904
0.136527
0.150300
0.126122
0.109148
0.078860
0.044637
-0.012496
-0.064300
-0.095269
-0.124773
-0.134051
-0.150945
-0.146884
-0.119780
-0.078122
-0.050897
0.004940
0.051716
0.086822
0.122920
0.137057
0.136867
0.142786
0.110982
0.079292
0.027837
-0.009708
-0.054578
-0.094349
-0.132564
-0.140407
-0.147708
-0.146323
-0.136900
-0.116776
-0.069545
-0.025456
0.037655
0.080193
0.104555
0.108671
0.112216
0.107831
0.106858
0.073501
0.034904
-0.013686
-0.069495
-0.107758
-0.148222
-0.163711
-0.169062
-0.166256
-0.155087
-0.117389
-0.083319
-0.033275
0.008130
0.045339
0.070948
0.074228
0.088680
0.085619
0.064918
0.029400
-0.014635
-0.059437
-0.117805
-0.152130
-0.182723
-0.193196
-0.203803
-0.207216
-0.192173
-0.157339
-0.125999
-0.093110
-0.033862
0.009968
0.017098
0.028689
0.031552
0.041000
0.015897
-0.018230
-0.057827
-0.099060
-0.151323
-0.184295
-0.224021
-0.255948
-0.264312
-0.246384
-0.212747
-0.178461
-0.147223
-0.117126
-0.085441
-0.029611
0.012877
0.024793
0.039519
0.031060
0.005930
-0.034030
-0.063955
-0.119253
-0.175036
-0.217812
-0.253629
-0.270459
-0.285052
-0.271183
-0.241085
-0.208014
-0.167411
-0.126545
-0.076102
-0.033862
0.004070
0.018114
0.025521
0.006332
-0.006135
-0.038551
-0.078270
-0.118499
-0.156512
-0.208231
-0.259159
-0.256672
-0.251930
-0.262357
-0.251916
-0.213400
-0.161565
-0.117617
-0.070864
-0.023598
0.006263
0.001232
0.018384
0.023601
-0.009149
-0.033894
-0.077131
-0.107477
-0.151475
-0.197430
-0.231633
-0.239927
-0.241254
-0.217115
-0.198059
-0.176410
-0.141829
-0.100466
-0.053657
-0.016689
0.018556
0.027947
0.033555
0.021586
0.005060
-0.014927
-0.060439
-0.098976
-0.153114
-0.200208
-0.237461
-0.250644
-0.256666
-0.243267
-0.219391
-0.184107
-0.150674
-0.104484
-0.053363
-0.019913
-0.006660
0.033173
0.056620
0.051906
0.029274
-0.013886
-0.049829
-0.101541
-0.138859
-0.178124
-0.225813
-0.251713
-0.256382
-0.245415
-0.211704
-0.179198
-0.135784
-0.090871
-0.049246
-0.011479
0.022225
0.038770
0.044320
0.034108
0.014273
-0.005010
-0.045587
-0.097101
-0.142570
-0.191211
-0.226977
-0.237652
-0.231793
-0.228032
-0.208585
-0.181982
-0.151515
-0.096613
-0.063502
-0.018810
0.021763
0.038020
0.041026
0.031998
0.008791
-0.028748
-0.063476
-0.109657
-0.159363
-0.183830
-0.198857
-0.232874
-0.232723
-0.228448
-0.208808
-0.177147
-0.143549
-0.089077
-0.047128
-0.018432
0.009947
0.027198
0.037284
0.034713
0.005800
-0.015258
-0.063035
-0.111142
-0.152398
-0.191209
-0.214598
-0.236075
-0.234096
-0.229817
-0.214238
-0.183141
-0.149115
-0.111295
-0.064326
-0.010794
0.015120
0.033821
0.041209
0.038926
0.010358
-0.025391
-0.080965
-0.104203
-0.143419
-0.195055
-0.238537
-0.248298
-0.262408
-0.247034
-0.226364
-0.190144
-0.149764
-0.092482
-0.042755
-0.010749
0.015146
0.031735
0.043508
0.044478
0.004266
-0.017793
-0.058461
-0.096007
-0.142326
-0.184304
-0.224347
-0.235695
-0.256797
-0.257397
-0.210728
-0.165727
-0.124138
-0.085619
-0.049309
-0.000893
0.045720
0.060746
0.060032
0.050273
0.053936
0.015663
-0.025213
-0.077258
-0.118649
-0.156776
-0.187526
-0.209311
-0.202684
-0.180057
-0.154350
-0.134101
-0.094756
-0.052940
-0.021588
0.011613
0.055609
0.069643
0.070901
0.058662
0.045250
0.022832
-0.010800
-0.070854
-0.125689
-0.159976
-0.190617
-0.203688
-0.210540
-0.192421
-0.163506
-0.125215
-0.078265
-0.025780
0.028326
0.063988
0.094259
0.100180
0.100821
0.109467
0.087795
0.058038
0.003355
-0.051888
-0.067057
-0.120926
-0.174911
-0.195358
-0.208991
-0.199951
-0.189799
-0.168392
-0.122383
-0.070588
-0.012857
0.032827
0.066071
0.083959
0.082846
0.068593
0.040887
0.020475
-0.017173
-0.060950
-0.117355
-0.163699
-0.209892
-0.239931
-0.238532
-0.219778
-0.185290
-0.158609
-0.131619
-0.094304
-0.046315
-0.003733
0.018225
0.029171
0.027871
0.029073
0.019330
-0.001852
-0.048803
-0.085809
-0.139382
-0.190327
-0.223459
-0.239217
-0.239534
-0.239222
-0.220473
-0.189730
-0.146112
-0.094090
-0.057277
-0.020257
0.007630
0.018672
0.036882
0.028278
-0.000556
-0.038648
-0.073156
-0.094403
-0.146804
-0.184712
-0.227061
-0.230482
-0.240798
-0.230717
-0.203917
-0.172524
-0.143543
-0.096945
-0.049303
-0.006674
0.025158
0.040109
0.045603
0.036222
0.006202
-0.021954
-0.065155
-0.095127
-0.131645
-0.175758
-0.216679
-0.228621
-0.237128
-0.221364
-0.210417
-0.194626
-0.149337
-0.095562
-0.047127
-0.008877
0.031141
0.044326
0.055500
0.060144
0.042267
0.000233
-0.039626
-0.097218
-0.138428
-0.189644
-0.220889
-0.244598
-0.236135
-0.230088
-0.210730
-0.179874
-0.129243
-0.078194
-0.026249
0.023187
0.056247
0.075537
0.095910
0.116979
0.128850
0.119498
0.081058
0.058338
0.014619
-0.026311
-0.036566
-0.036503
-0.040561
0.005739
0.062511
0.121224
0.198826
0.269518
0.339547
0.404279
0.463515
0.554325
0.582606
0.590720
0.614854
0.656845
0.667478
0.649576
0.637112
0.634314
0.633271
0.608005
0.586627
0.583671
0.590486
0.615186
0.637159
0.655898
0.661001
0.645982
0.603500
0.573196
0.503395
0.444729
0.389380
0.309978
0.213868
0.139343
0.101102
0.044001
0.006859
-0.016199
-0.020361
-0.034303
-0.029148
-0.001376
0.034697
0.071540
0.092598
0.129882
0.158053
0.177060
0.181219
0.170189
0.149828
0.110968
0.064152
0.012432
-0.031316
-0.067585
-0.096299
-0.126755
-0.132343
-0.134125
-0.116929
-0.084896
-0.042739
0.000032
0.039233
0.076843
0.117362
0.126402
0.126932
0.121142
0.102398
0.073374
0.033381
-0.006805
-0.051683
-0.098604
-0.133728
-0.157213
-0.154329
-0.144319
-0.118387
-0.091417
-0.059853
-0.014056
0.035711
0.085721
0.124519
0.138082
0.135809
0.110661
0.105400
0.090367
0.041321
-0.001127
-0.046991
-0.085132
-0.106104
-0.121535
-0.117500
-0.119182
-0.105193
-0.068129
-0.013967
0.029454
0.074752
0.127605
0.149435
0.176247
0.174699
0.159935
0.137590
0.108856
0.071435
0.021219
-0.021348
-0.059125
-0.089609
-0.108286
-0.098226
-0.094789
-0.069431
-0.040529
0.006711
0.048109
0.098142
0.143775
0.170009
0.194109
0.197324
0.192836
0.170397
0.136903
0.098728
0.057062
0.020654
-0.008797
-0.053712
-0.055229
-0.050675
-0.061723
-0.040310
-0.001486
0.043363
0.095996
0.141041
0.186132
0.220902
0.236467
0.232575
0.230949
0.211512
0.188339
0.149530
0.108605
0.056930
0.011940
-0.016550
-0.028146
-0.025577
-0.016111
0.005284
0.039998
0.082754
0.130528
0.178599
0.212318
0.242309
0.263752
0.274143
0.267955
0.258155
0.211537
0.182501
0.139209
0.092260
0.035866
0.014704
0.011654
0.006043
0.013989
0.039847
0.075451
0.127436
0.173555
0.215613
0.248527
0.260981
0.279314
0.280775
0.288206
0.262339
0.232176
0.203634
0.141643
0.101354
0.065335
0.035883
0.011160
0.013071
0.027941
0.044146
0.081454
0.116384
0.154515
0.197582
0.231373
0.277317
0.298556
0.305871
0.279463
0.256461
0.229350
0.185680
0.149538
0.108691
0.061219
0.023827
0.003217
0.003545
-0.001926
0.024397
0.052956
0.098846
0.137924
0.193319
0.226580
0.254124
0.275687
0.275489
0.266453
0.254705
0.215120
0.160790
0.129647
0.066474
0.026014
-0.012512
-0.030373
-0.027905
-0.026457
-0.012517
0.010422
0.050941
0.095134
0.137649
0.191112
0.217170
0.232809
0.227246
0.203606
0.188472
0.162528
0.116093
0.073953
0.039926
0.004647
-0.031162
-0.042254
-0.054188
-0.047647
-0.033216
-0.007629
0.022419
0.068140
0.120959
0.160592
0.184255
0.207670
0.212504
0.207189
0.182444
0.148511
0.108152
0.062826
0.013057
-0.016371
-0.051923
-0.069126
-0.077238
-0.062862
-0.050885
-0.013021
0.024711
0.067439
0.112009
0.149555
0.186543
0.189057
0.193718
0.191991
0.174102
0.142407
0.105787
0.058140
0.018183
-0.021263
-0.053713
-0.072731
-0.074358
-0.065450
-0.040444
-0.004003
0.026935
0.073737
0.132431
0.173447
0.204394
0.220505
0.226756
0.210593
0.188141
0.146790
0.112206
0.061659
0.024052
-0.015351
-0.055262
-0.065771
-0.065194
-0.060103
-0.022982
0.017954
0.053454
0.099597
0.140524
0.178712
0.206322
0.245268
0.241240
0.233616
0.222484
0.200176
0.150019
0.080303
0.031859
0.000014
-0.024497
-0.046537
-0.053460
-0.048804
-0.025044
0.018696
0.048525
0.094293
0.144690
0.198924
0.219620
0.228006
0.231696
0.217673
0.192209
0.171187
0.144100
0.105341
0.047946
0.007496
-0.021066
-0.039259
-0.050660
-0.045433
-0.021335
0.016036
0.055852
0.098983
0.149542
0.179804
0.208760
0.232166
0.242804
0.237004
0.222084
0.182594
0.148273
0.102755
0.061260
0.015618
-0.016823
-0.041265
-0.041836
-0.039336
-0.012619
0.020855
0.047895
0.092733
0.141067
0.188725
0.225234
0.249332
0.258390
0.248210
0.223384
0.165955
0.135257
0.109854
0.061119
0.010396
-0.013135
-0.028677
-0.023943
-0.027904
-0.007141
0.026342
0.059588
0.106251
0.152547
0.194127
0.221059
0.246292
0.250302
0.234672
0.224122
0.183498
0.132324
0.088786
0.044963
-0.002125
-0.026391
-0.054390
-0.059520
-0.045038
-0.022870
0.013798
0.044771
0.094911
0.136109
0.188962
0.227858
0.243014
0.253888
0.237922
0.214096
0.172899
0.146201
0.084606
0.041448
0.010427
-0.016959
-0.042362
-0.049387
-0.043779
-0.018115
0.017461
0.053052
0.091222
0.136385
0.178012
0.213654
0.225005
0.233741
0.225854
0.217842
0.188686
0.152334
0.105872
0.057814
0.013386
-0.018575
-0.036006
-0.045269
-0.035099
-0.013369
0.021311
0.048010
0.096780
0.125688
0.168712
0.211510
0.242803
0.248240
0.239961
0.211957
0.185593
0.151579
0.107976
0.054674
0.012126
-0.023358
-0.043111
-0.049140
-0.035384
-0.009831
0.036234
0.066657
0.103190
0.153351
0.191776
0.219119
0.231092
0.242671
0.234883
0.221222
0.189673
0.152579
0.112038
0.066737
0.016954
-0.008515
-0.017687
-0.020834
-0.013504
0.010803
0.035221
0.077388
0.136316
0.194771
0.224145
0.259993
0.278633
0.274195
0.267670
0.250831
0.215878
0.183708
0.145633
0.099550
0.055504
0.016547
-0.013462
-0.044696
-0.028539
-0.005244
0.051044
0.100288
0.136423
0.167018
0.223989
0.275834
0.297454
0.301636
0.288755
0.265569
0.236023
0.204387
0.166770
0.119317
0.090376
0.055600
0.027231
0.022163
0.024630
0.055477
0.091344
0.130223
0.167508
0.209289
0.262604
0.291331
0.310266
0.310456
0.295162
0.273349
0.232683
0.195307
0.139539
0.095610
0.051489
0.019780
-0.009068
-0.018235
-0.000267
0.022779
0.067442
0.093302
0.126108
0.182994
0.216765
0.246304
0.254972
0.262336
0.245217
0.209437
0.187869
0.139965
0.093383
0.065402
0.027798
-0.021418
-0.054768
-0.043128
-0.051349
-0.017535
0.030220
0.076125
0.114478
0.142699
0.169650
0.212681
0.225019
0.228689
0.217108
0.191180
0.173998
0.124056
0.080350
0.046666
0.008758
-0.020369
-0.044528
-0.060208
-0.035206
-0.018643
0.013409
0.049618
0.094000
0.149255
0.185934
0.218202
0.239302
0.241289
0.237302
0.211925
0.172221
0.130396
0.091242
0.040214
0.006338
-0.022833
-0.043031
-0.052035
-0.039763
-0.035749
0.003983
0.042361
0.082124
0.135813
0.185644
0.217078
0.220125
0.230429
0.212515
0.191387
0.152897
0.127957
0.096910
0.056731
0.008485
-0.024673
-0.052093
-0.055908
-0.046490
-0.028218
0.015194
0.053159
0.092911
0.130007
0.175311
0.213129
0.225977
0.223324
0.201596
0.176709
0.144494
0.117516
0.064945
0.012635
-0.005284
-0.010590
-0.026992
-0.033930
0.005121
0.044937
0.097456
0.155265
0.199376
0.262766
0.321242
0.365806
0.383557
0.400729
0.403209
0.401126
0.392492
0.384693
0.357153
0.339326
0.325645
0.331657
0.343920
0.371986
0.413991
0.457799
0.509925
0.594281
0.689371
0.776535
0.857795
0.927216
0.983956
1.010030
0.984896
0.955076
0.920577
0.885092
0.820527
0.759025
0.687695
0.620922
0.567122
0.485054
0.421504
0.351160
0.336740
0.363135
0.355281
0.367063
0.367258
0.380830
0.385150
0.375756
0.358326
0.324160
0.290320
0.239418
0.193889
0.137887
0.087302
0.059322
0.038758
0.035584
0.034521
0.052052
0.074089
0.121540
0.166133
0.218577
0.259204
0.275005
0.287965
0.294102
0.284398
0.256327
0.212913
0.168234
0.136651
0.080962
0.046085
0.011587
-0.009773
-0.007145
0.005649
0.031154
0.061839
0.102018
0.144460
0.187284
0.224689
0.244163
0.268436
0.288610
0.273992
0.257028
0.244937
0.184897
0.131246
0.078611
0.043223
0.008352
-0.020992
-0.037967
-0.007772
0.033669
0.066821
0.105590
0.138372
0.171636
0.211234
0.252225
0.278758
0.270551
0.273289
0.263866
0.225305
0.190161
0.141531
0.101892
0.062169
0.022298
-0.005136
-0.010611
0.022646
0.047739
0.071398
0.119269
0.153180
0.204581
0.244623
0.276861
0.292499
0.297023
0.284360
0.270411
0.247405
0.193624
0.136355
0.105866
0.073072
0.034636
0.031043
0.026499
0.045620
0.061990
0.095857
0.126005
0.180202
0.218632
0.268837
0.304193
0.334747
0.338077
0.320272
0.293683
0.258007
0.226709
0.192799
0.146937
0.110297
0.083622
0.064382
0.068253
0.081519
0.091342
0.114949
0.164185
0.203431
0.264238
0.300989
0.353324
0.370762
0.372122
0.349232
0.325083
0.291001
0.259496
0.212352
0.172309
0.124114
0.095247
0.090469
0.098041
0.118296
0.137076
0.156973
0.208413
0.240570
0.284529
0.336049
0.364586
0.387664
0.413903
0.412319
0.395831
0.345517
0.276621
0.234784
0.199083
0.153165
0.126170
0.101168
0.089239
0.107471
0.125283
0.188970
0.238457
0.256828
0.302898
0.342727
0.387779
0.407728
0.400623
0.376318
0.348080
0.315466
0.263336
0.236025
0.213158
0.170792
0.138721
0.127360
0.120114
0.122101
0.140084
0.167155
0.203585
0.240820
0.284918
0.323428
0.357276
0.373214
0.379470
0.372509
0.337972
0.294286
0.257068
0.218365
0.162952
0.125909
0.100249
0.082001
0.073075
0.071654
0.102680
0.123351
0.175963
0.223901
0.255876
0.299675
0.327293
0.344470
0.348130
0.323131
0.305966
0.267694
0.208865
0.180696
0.130251
0.079615
0.049360
0.029795
0.011739
0.022456
0.038607
0.080988
0.119663
0.173005
0.229073
0.260212
0.276697
0.289466
0.286291
0.273694
0.228795
0.212903
0.194395
0.144312
0.094945
0.054774
0.008121
-0.019203
-0.036807
-0.015004
0.012698
0.040606
0.082966
0.119080
0.166446
0.206880
0.242599
0.272938
0.278161
0.272324
0.248896
0.203705
0.156700
0.124451
0.086063
0.026669
-0.022304
-0.023823
-0.025035
-0.033668
-0.018060
0.024251
0.064877
0.121570
0.169062
0.208222
0.232575
0.252750
0.255505
0.245187
0.213401
0.203234
0.161528
0.119210
0.064079
0.026041
-0.006664
-0.023591
-0.033068
-0.027851
-0.006128
0.026781
0.078251
0.123422
0.168106
0.204880
0.234495
0.264619
0.276348
0.253898
0.226524
0.198658
0.168211
0.106992
0.065814
0.031653
-0.000521
-0.032478
-0.029045
-0.029139
-0.008619
0.027871
0.063200
0.140997
0.194352
0.218723
0.245282
0.274736
0.272871
0.255594
0.229476
0.204579
0.159730
0.131105
0.079810
0.032286
-0.015642
-0.036595
-0.044636
-0.032458
-0.001658
0.038860
0.084016
0.130027
0.182444
0.227224
0.257640
0.280293
0.264367
0.264499
0.239892
0.192489
0.137953
0.098059
0.067822
0.026482
-0.002408
-0.007471
-0.018078
-0.007259
0.003779
0.030606
0.081786
0.129259
0.179223
0.205324
0.224839
0.250781
0.261510
0.253177
0.214076
0.175070
0.132106
0.085070
0.045892
0.005404
-0.022495
-0.024397
-0.021855
-0.007203
0.003739
0.045996
0.073598
0.129606
0.183895
0.213406
0.241747
0.252942
0.269809
0.262139
0.218122
0.182261
0.151477
0.113061
0.056387
0.019655
-0.021910
-0.046274
-0.044285
-0.022435
-0.008613
0.027900
0.065441
0.106838
0.161526
0.201255
0.231978
0.246785
0.235348
0.239230
0.215892
0.179875
0.126095
0.091200
0.058631
0.012375
-0.024852
-0.045365
-0.045631
-0.042995
-0.017746
0.008443
0.062443
0.103307
0.146669
0.198570
0.231794
0.243743
0.237579
0.231279
0.200059
0.156776
0.125988
0.093273
0.052314
0.009248
-0.040394
-0.057568
-0.056645
-0.036195
-0.011666
0.019035
0.041180
0.090983
0.151434
0.194845
0.213351
0.230456
0.239953
0.244859
0.214529
0.183021
0.134554
0.084890
0.036223
-0.000264
-0.026983
-0.034872
-0.048894
-0.045662
-0.034882
0.015474
0.052428
0.105762
0.147421
0.179431
0.215105
0.257003
0.251481
0.242225
0.219085
0.182760
0.141718
0.096597
0.065003
0.030913
-0.028305
-0.034033
-0.041246
-0.029810
0.006109
0.038686
0.087133
0.132609
0.175223
0.216768
0.253417
0.270305
0.268381
0.263303
0.232895
0.206091
0.166143
0.110138
0.055173
0.010949
-0.019619
-0.024985
-0.034872
-0.039131
-0.018490
0.014593
0.069291
0.126818
0.168443
0.225696
0.276347
0.296087
0.296988
0.292481
0.266984
0.237169
0.193740
0.132695
0.093016
0.045142
-0.013433
-0.029091
-0.022331
-0.017757
0.004644
0.034933
0.063696
0.119571
0.171660
0.205284
0.232133
0.239008
0.241353
0.241786
0.214539
0.168141
0.126602
0.084651
0.040103
-0.004308
-0.024661
-0.047654
-0.052923
-0.058083
-0.030809
0.002159
0.044288
0.088799
0.128254
0.163116
0.196400
0.206656
0.221606
0.211937
0.178328
0.135914
0.093008
0.055509
0.011163
-0.031820
-0.070482
-0.080830
-0.085170
-0.084104
-0.061884
-0.030839
0.005447
0.061599
0.091963
0.127635
0.168672
0.196532
0.192083
0.168420
0.148939
0.125984
0.083625
0.040260
-0.004766
-0.032640
-0.064749
-0.074035
-0.079778
-0.078549
-0.056237
-0.020169
0.014220
0.067672
0.110196
0.147945
0.177487
0.191237
0.191601
0.186356
0.171747
0.131939
0.091378
0.048327
-0.007338
-0.051652
-0.089134
-0.108321
-0.103777
-0.096849
-0.057738
-0.023544
0.006393
0.060409
0.111436
0.141525
0.179012
0.202565
0.208835
0.191358
0.164881
0.135800
0.086082
0.037082
-0.002703
-0.048009
-0.083014
-0.107229
-0.104759
-0.096260
-0.080480
-0.044450
0.006986
0.056982
0.093431
0.151088
0.189233
0.217498
0.248053
0.255405
0.249358
0.226275
0.203617
0.162541
0.126143
0.087015
0.074289
0.087765
0.079917
0.091664
0.144960
0.208333
0.275624
0.330452
0.403054
0.516007
0.586429
0.627274
0.656248
0.664098
0.667019
0.665482
0.669402
0.662701
0.653450
0.650928
0.656169
0.669618
0.675472
0.672207
0.690655
0.739683
0.760355
0.792228
0.812785
0.811384
0.784208
0.733862
0.684750
0.608199
0.533871
0.445585
0.365580
0.280599
0.201121
0.132981
0.077367
0.038303
0.026309
0.027984
0.049467
0.081335
0.117428
0.155433
0.198673
0.236339
0.268934
0.281871
0.283257
0.254331
0.228274
0.195139
0.151686
0.106148
0.092085
0.042888
-0.029669
-0.055820
-0.044774
-0.017662
0.017547
0.042494
0.064473
0.113131
0.160201
0.196827
0.218183
0.251032
0.257984
0.244148
0.208928
0.172573
0.124191
0.089250
0.046865
0.003721
-0.031457
-0.045176
-0.072226
-0.056706
-0.028494
0.001360
0.044754
0.088918
0.144444
0.177352
0.207582
0.233573
0.244343
0.231897
0.208022
0.161702
0.121320
0.083452
0.031621
-0.010930
-0.029809
-0.041048
-0.040096
-0.043090
-0.020616
0.016505
0.054659
0.104785
0.144122
0.182654
0.222316
0.239600
0.259446
0.243572
0.221493
0.182753
0.147409
0.084815
0.050822
0.015475
-0.014815
-0.034839
-0.042742
-0.022193
0.002987
0.031738
0.064520
0.116094
0.175750
0.222826
0.255708
0.267114
0.273877
0.272785
0.238057
0.201216
0.178974
0.128495
0.077277
0.034528
-0.000104
-0.007947
-0.009149
-0.005048
0.018342
0.063631
0.090157
0.143970
0.173127
0.234271
0.272685
0.297557
0.290652
0.287359
0.282126
0.257522
0.214131
0.169178
0.118777
0.089379
0.052751
0.022940
0.020172
0.027229
0.049415
0.090915
0.140662
0.180364
0.224123
0.274277
0.305140
0.327429
0.339383
0.329588
0.310668
0.280478
0.217834
0.156768
0.134547
0.116323
0.091211
0.067799
0.041907
0.049379
0.058891
0.098536
0.132388
0.192894
0.253208
0.297198
0.328225
0.335651
0.336686
0.341978
0.317735
0.269059
0.227047
0.182772
0.148254
0.108507
0.071132
0.046887
0.037769
0.050990
0.081565
0.114178
0.139497
0.183702
0.231677
0.289602
0.310600
0.319665
0.321269
0.306500
0.281846
0.268801
0.238006
0.181941
0.134126
0.085796
0.056579
0.013661
0.007516
0.015241
0.040706
0.074926
0.129269
0.171899
0.212333
0.240928
0.276204
0.299226
0.299414
0.285141
0.268998
0.202123
0.167289
0.129570
0.092790
0.048171
0.008055
-0.016212
-0.028195
-0.016777
0.006638
0.038144
0.072861
0.117331
0.168279
0.216970
0.234843
0.250348
0.244553
0.245561
0.244446
0.201684
0.146764
0.095361
0.044439
0.002041
-0.024389
-0.045819
-0.057017
-0.059305
-0.030112
0.013524
0.043442
0.078087
0.123503
0.163274
0.179542
0.205837
0.225848
0.212267
0.178800
0.143273
0.101631
0.061932
0.020273
-0.020020
-0.043033
-0.067180
-0.062279
-0.058018
-0.056493
-0.023856
0.020063
0.059411
0.119169
0.144068
0.175135
0.208412
0.223111
0.203250
0.186120
0.146407
0.097537
0.051004
-0.000289
-0.038037
-0.067325
-0.079207
-0.085065
-0.076150
-0.050295
-0.017142
0.028324
0.066575
0.116453
0.161845
0.187439
0.209688
0.218303
0.208358
0.178331
0.149604
0.101730
0.044742
-0.006585
-0.044198
-0.072197
-0.087658
-0.086428
-0.075047
-0.059270
-0.023944
0.012712
0.068407
0.097960
0.156238
0.187500
0.207645
0.215567
0.218458
0.188012
0.142640
0.086671
0.034004
0.002740
-0.033114
-0.069790
-0.078713
-0.082923
-0.074971
-0.070100
-0.029529
0.016420
0.076709
0.123507
0.164363
0.191361
0.209437
0.208305
0.209031
0.195064
0.149009
0.109869
0.071078
0.031550
-0.009035
-0.048809
-0.071529
-0.062326
-0.061461
-0.043640
-0.007428
0.020628
0.067018
0.117218
0.156629
0.175712
0.204177
0.217757
0.202914
0.175225
0.141227
0.109233
0.065559
0.015010
-0.015970
-0.057626
-0.082125
-0.085648
-0.071257
-0.048845
-0.010007
0.023542
0.070069
0.120881
0.161238
0.198761
0.216347
0.222714
0.210237
0.177542
0.140279
0.099346
0.043635
-0.000560
-0.045427
-0.078617
-0.090816
-0.091049
-0.079102
-0.063771
-0.027772
0.011433
0.055528
0.106400
0.141256
0.171596
0.181938
0.200360
0.189469
0.169749
0.124299
0.079683
0.028607
-0.025726
-0.056994
-0.071442
-0.088414
-0.094915
-0.098855
-0.079736
-0.050210
0.001082
0.050152
0.106229
0.139381
0.164181
0.183623
0.195141
0.189591
0.166734
0.132440
0.091137
0.027417
-0.019738
-0.060626
-0.082871
-0.095345
-0.093576
-0.098880
-0.077218
-0.044559
-0.011821
0.034264
0.098721
0.137262
0.156942
0.156540
0.169831
0.185754
0.164403
0.117582
0.063003
0.019689
-0.022620
-0.059524
-0.104170
-0.113756
-0.107981
-0.108235
-0.060615
-0.043116
-0.028862
0.022009
0.074242
0.131794
0.162203
0.180240
0.180264
0.179391
0.141561
0.104760
0.055876
0.021330
-0.016412
-0.066775
-0.112913
-0.119404
-0.119919
-0.112291
-0.089701
-0.067935
-0.026904
0.037808
0.103807
0.151974
0.163577
0.162082
0.175694
0.185051
0.168047
0.118824
0.093081
0.055221
-0.005059
-0.049626
-0.068599
-0.088328
-0.094436
-0.081405
-0.063640
-0.032806
0.008288
0.052164
0.110794
0.148448
0.185033
0.210662
0.223783
0.212339
0.186170
0.146830
0.107313
0.065508
0.015625
-0.022652
-0.070845
-0.088521
-0.094191
-0.102751
-0.088459
-0.048691
0.001878
0.049194
0.096014
0.155617
0.202957
0.233531
0.235624
0.221730
0.195386
0.155068
0.106109
0.078461
0.033053
-0.004172
-0.031453
-0.055218
-0.054485
-0.046888
-0.036957
0.003591
0.031188
0.069314
0.104570
0.149125
0.180992
0.193689
0.204077
0.193583
0.168729
0.124120
0.080493
0.035161
-0.018642
-0.067418
-0.095969
-0.115645
-0.128300
-0.115637
-0.092194
-0.063863
-0.024031
0.028507
0.088448
0.132587
0.151950
0.166416
0.177713
0.162852
0.134877
0.097949
0.048946
0.003484
-0.044944
-0.088890
-0.124845
-0.143578
-0.137892
-0.130095
-0.124274
-0.089260
-0.053420
-0.008951
0.045125
0.068865
0.104394
0.116282
0.132176
0.131449
0.128847
0.099184
0.057209
0.002048
-0.053835
-0.093239
-0.137605
-0.163148
-0.169471
-0.149061
-0.129936
-0.094890
-0.048333
0.002921
0.047146
0.086970
0.105546
0.132967
0.143854
0.137187
0.102095
0.066511
0.025558
-0.004558
-0.067876
-0.113167
-0.138996
-0.153747
-0.173169
-0.166245
-0.131895
-0.101421
-0.064064
-0.034655
0.017885
0.074681
0.118361
0.140722
0.136661
0.126737
0.108955
0.067124
0.026656
-0.013170
-0.058203
-0.090594
-0.133172
-0.162552
-0.167879
-0.165193
-0.131182
-0.097010
-0.056783
-0.030859
0.009323
0.068318
0.113157
0.131152
0.139050
0.126746
0.103265
0.067800
0.034443
0.004222
-0.036301
-0.078874
-0.104239
-0.100240
-0.096201
-0.069855
-0.027398
0.021536
0.076783
0.136981
0.203119
0.267006
0.312825
0.354242
0.390824
0.413908
0.421894
0.411389
0.407118
0.401720
0.392187
0.380927
0.376781
0.392676
0.410301
0.471682
0.546512
0.609199
0.689542
0.768210
0.843187
0.896955
0.924421
0.938388
0.949832
0.913172
0.864836
0.792708
0.728739
0.644484
0.521119
0.409165
0.307723
0.229298
0.177045
0.143078
0.114980
0.099883
0.120191
0.164078
0.194135
0.238768
0.265723
0.278576
0.275484
0.256637
0.220994
0.175383
0.128725
0.072778
0.026621
-0.007909
-0.048904
-0.064248
-0.084391
-0.071924
-0.048590
-0.016316
0.026885
0.062469
0.107437
0.146483
0.185251
0.201005
0.196048
0.190481
0.157156
0.127249
0.076631
0.010387
-0.024702
-0.066556
-0.102538
-0.124737
-0.136409
-0.121722
-0.107933
-0.068912
-0.016104
0.030957
0.068596
0.114979
0.142504
0.157759
0.168011
0.164883
0.127615
0.112918
0.068210
0.025408
-0.017416
-0.075718
-0.107324
-0.122917
-0.128468
-0.125385
-0.097208
-0.066069
-0.010266
0.028423
0.064538
0.102702
0.153007
0.168805
0.175145
0.161922
0.135456
0.117627
0.072056
0.028358
-0.005350
-0.053336
-0.077062
-0.095438
-0.112441
-0.111223
-0.084416
-0.055225
-0.008585
0.038515
0.081401
0.123234
0.169926
0.199639
0.205808
0.195328
0.174198
0.141295
0.085664
0.033698
-0.005599
-0.034917
-0.070661
-0.092392
-0.104951
-0.078451
-0.056499
-0.013430
0.037101
0.092505
0.133857
0.165816
0.186786
0.218637
0.236441
0.234904
0.201296
0.166579
0.105088
0.066678
0.026649
-0.013377
-0.032364
-0.044779
-0.055801
-0.043510
-0.037697
0.000629
0.061474
0.110130
0.160938
0.199915
0.230317
0.243748
0.259463
0.252430
0.221925
0.192363
0.141955
0.097637
0.062962
0.026672
0.000118
-0.026390
-0.030215
-0.020059
-0.015128
0.031980
0.092154
0.119127
0.162936
0.209949
0.243253
0.275270
0.278661
0.274302
0.247294
0.208972
0.168513
0.129462
0.084057
0.033415
-0.003637
-0.023397
-0.024225
-0.011157
0.002112
0.040010
0.086598
0.127301
0.167665
0.209532
0.238060
0.257387
0.267067
0.267365
0.252465
0.208599
0.152722
0.103251
0.054242
0.028081
0.002147
-0.022568
-0.024242
-0.018738
0.005350
0.038069
0.081289
0.104456
0.146660
0.191800
0.224749
0.257756
0.239483
0.226257
0.205355
0.180196
0.121806
0.070287
0.032657
-0.011888
-0.035800
-0.066732
-0.085459
-0.072668
-0.039645
0.004995
0.054247
0.084591
0.115228
0.155231
0.186294
0.213378
0.220228
0.204887
0.173178
0.136185
0.075489
0.045835
0.014412
-0.046529
-0.090229
-0.110141
-0.107812
-0.113971
-0.094593
-0.068149
-0.024235
0.013503
0.058244
0.110979
0.145196
0.171541
0.174814
0.161042
0.131499
0.092712
0.037652
-0.004009
-0.048253
-0.068495
-0.103670
-0.125570
-0.128937
-0.132377
-0.118988
-0.078243
-0.028195
0.010311
0.051043
0.095185
0.118523
0.136271
0.142599
0.142680
0.118443
0.090424
0.042972
-0.011724
-0.054815
-0.095205
-0.134701
-0.153200
-0.157594
-0.152324
-0.131014
-0.087134
-0.026698
0.012248
0.050424
0.072652
0.117498
0.133017
0.144691
0.126331
0.109066
0.072996
0.002920
-0.008759
-0.058308
-0.093330
-0.117150
-0.147896
-0.167131
-0.145821
-0.124000
-0.100023
-0.045318
0.004712
0.043965
0.074473
0.121035
0.150174
0.150817
0.142295
0.117218
0.060059
0.029614
-0.011142
-0.052322
-0.086736
-0.113328
-0.130840
-0.141135
-0.144178
-0.121843
-0.079628
-0.037194
-0.003691
0.059610
0.101621
0.121778
0.141401
0.156551
0.153443
0.128002
0.087965
0.041946
-0.002432
-0.050805
-0.099382
-0.118476
-0.128660
-0.141152
-0.151298
-0.131856
-0.090337
-0.032512
0.004581
0.053822
0.103601
0.134680
0.153207
0.157233
0.148670
0.122543
0.083836
0.049960
0.003042
-0.033560
-0.073743
-0.112804
-0.131138
-0.137297
-0.143574
-0.122326
-0.079889
-0.042050
-0.000934
0.040795
0.098175
0.128896
0.146858
0.144437
0.137789
0.116060
0.078793
0.022124
-0.025937
-0.062860
-0.114445
-0.133897
-0.138443
-0.144647
-0.127784
-0.112043
-0.070288
-0.047686
-0.001440
0.040102
0.064709
0.111349
0.145443
0.136212
0.126660
0.109708
0.067847
0.025175
-0.024646
-0.068720
-0.114695
-0.141379
-0.156434
-0.153223
-0.144013
-0.133977
-0.099001
-0.042032
0.012785
0.056869
0.090634
0.117890
0.123193
0.122345
0.107602
0.103508
0.067875
0.021155
-0.025636
-0.078457
-0.120144
-0.158847
-0.161890
-0.168183
-0.162800
-0.141846
-0.111400
-0.062400
-0.017460
0.032532
0.066160
0.100404
0.124882
0.114788
0.120852
0.096818
0.064236
0.031933
-0.027535
-0.075367
-0.114981
-0.151578
-0.165779
-0.183651
-0.175181
-0.151269
-0.121300
-0.077763
-0.032632
0.013876
0.069161
0.105520
0.130234
0.128208
0.111728
0.092042
0.056997
0.007440
-0.024480
-0.073838
-0.115974
-0.154346
-0.175811
-0.172226
-0.169712
-0.150363
-0.116279
-0.085765
-0.042488
0.005396
0.056019
0.096685
0.099562
0.102047
0.088553
0.085819
0.066301
0.003971
-0.046793
-0.084378
-0.128342
-0.161939
-0.167864
-0.169386
-0.170005
-0.147702
-0.117554
-0.076624
-0.028717
0.013388
0.068801
0.098988
0.116610
0.118574
0.094568
0.075882
0.051919
0.004178
-0.040522
-0.084391
-0.116491
-0.150065
-0.173263
-0.166201
-0.165051
-0.140676
-0.108335
-0.059482
0.006324
0.049086
0.093522
0.124039
0.147283
0.150098
0.156629
0.129786
0.096324
0.047802
-0.005621
-0.063427
-0.102807
-0.131586
-0.150445
-0.154452
-0.152678
-0.130357
-0.090270
-0.048609
-0.003196
0.036158
0.083268
0.109600
0.133659
0.154092
0.145847
0.131637
0.104062
0.061303
0.017449
-0.028527
-0.074154
-0.092510
-0.127257
-0.133328
-0.122186
-0.100669
-0.066076
-0.019549
0.029072
0.071771
0.105411
0.141071
0.150213
0.145101
0.121745
0.086842
0.067613
0.040006
-0.023488
-0.067674
-0.106361
-0.142284
-0.171103
-0.172094
-0.165599
-0.136701
-0.104519
-0.076846
-0.026695
0.011029
0.052131
0.102668
0.119419
0.115437
0.107618
0.075299
0.035821
-0.012757
-0.063858
-0.090603
-0.131207
-0.175175
-0.197137
-0.202026
-0.223725
-0.202321
-0.139014
-0.101227
-0.047363
-0.003809
0.034055
0.057397
0.082094
0.079357
0.073877
0.056236
0.026000
-0.012166
-0.071357
-0.122268
-0.161623
-0.195550
-0.221642
-0.229235
-0.227242
-0.211207
-0.157071
-0.128153
-0.070839
-0.021926
0.025769
0.062271
0.084898
0.089201
0.085986
0.070825
0.026413
-0.021414
-0.076987
-0.126218
-0.166531
-0.196125
-0.207418
-0.200730
-0.208581
-0.178877
-0.154229
-0.115609
-0.052488
-0.016128
0.024512
0.062197
0.081821
0.085337
0.080321
0.057263
0.019980
-0.027140
-0.085592
-0.128178
-0.167703
-0.198062
-0.211653
-0.230703
-0.218562
-0.192802
-0.154778
-0.127115
-0.080200
-0.026995
0.029378
0.055386
0.071113
0.060628
0.057766
0.033176
0.005793
-0.036056
-0.070945
-0.113518
-0.148381
-0.189932
-0.201183
-0.196483
-0.177783
-0.124460
-0.072890
-0.018564
0.045503
0.127109
0.178151
0.218626
0.243558
0.265872
0.276854
0.279815
0.279030
0.276464
0.255427
0.236936
0.239158
0.237785
0.257501
0.290487
0.332518
0.377748
0.448208
0.549004
0.649997
0.732851
0.816270
0.867363
0.890910
0.915736
0.911976
0.880434
0.842197
0.776040
0.699978
0.638198
0.551724
0.468004
0.385895
0.317688
0.265499
0.223166
0.203396
0.176270
0.174739
0.177368
0.208460
0.238470
0.244028
0.248813
0.254077
0.211506
0.171800
0.120671
0.072226
0.011366
-0.059571
-0.101524
-0.110921
-0.112856
-0.109997
-0.100781
-0.055762
-0.034950
-0.008958
0.036842
0.082687
0.121981
0.139981
0.141289
0.137404
0.123947
0.082556
0.042710
-0.013127
-0.073057
-0.125916
-0.168502
-0.193261
-0.176591
-0.156978
-0.142224
-0.114215
-0.074892
-0.023249
0.044995
0.090125
0.112888
0.116015
0.129237
0.117771
0.088162
0.048777
0.001174
-0.043974
-0.091486
-0.137043
-0.160808
-0.175759
-0.178963
-0.174194
-0.147796
-0.115748
-0.077073
-0.024014
0.023945
0.069724
0.089884
0.097738
0.113010
0.121369
0.095834
0.070348
0.032593
-0.029712
-0.067615
-0.112701
-0.146744
-0.155759
-0.166173
-0.161692
-0.142560
-0.099162
-0.059081
-0.007485
0.040795
0.083398
0.118742
0.137437
0.142272
0.135280
0.103223
0.068932
0.034556
-0.006337
-0.053643
-0.095538
-0.128804
-0.136591
-0.133823
-0.116732
-0.105523
-0.084452
-0.042556
0.017840
0.060925
0.095572
0.137328
0.141509
0.145145
0.129155
0.118744
0.102073
0.066155
0.019506
-0.014457
-0.056366
-0.091516
-0.114665
-0.138369
-0.114105
-0.078973
-0.046523
0.005848
0.060949
0.101793
0.141103
0.178549
0.193494
0.204342
0.193091
0.163937
0.129672
0.103160
0.055763
0.011157
-0.027556
-0.077356
-0.090604
-0.092447
-0.073406
-0.044767
-0.019573
0.024379
0.078950
0.122392
0.167723
0.207681
0.216755
0.231152
0.228644
0.211789
0.183562
0.138584
0.084913
0.027823
-0.011796
-0.042033
-0.071599
-0.073941
-0.060048
-0.041588
-0.023925
0.028923
0.076370
0.116576
0.167334
0.213505
0.227946
0.232263
0.229717
0.198395
0.151107
0.115777
0.070954
0.027651
-0.016970
-0.054219
-0.068858
-0.083269
-0.082587
-0.057752
-0.030309
0.000892
0.043014
0.091746
0.149075
0.176615
0.200902
0.211627
0.212961
0.183654
0.146079
0.095752
0.041776
-0.009973
-0.056045
-0.084039
-0.106004
-0.109993
-0.102000
-0.082892
-0.048444
-0.004925
0.041435
0.085606
0.119910
0.155672
0.167312
0.167060
0.151113
0.118300
0.103034
0.059236
-0.005928
-0.055101
-0.098698
-0.129136
-0.157067
-0.166134
-0.152730
-0.136868
-0.102955
-0.073305
-0.028788
0.035085
0.081906
0.109774
0.129650
0.129527
0.129348
0.099816
0.040739
0.006948
-0.022907
-0.078337
-0.121083
-0.159360
-0.179398
-0.194891
-0.181767
-0.170597
-0.137302
-0.089891
-0.044598
0.012003
0.044461
0.056520
0.079968
0.091919
0.086024
0.063809
0.040757
0.003139
-0.037770
-0.104578
-0.143060
-0.169951
-0.197848
-0.210051
-0.200013
-0.183779
-0.146185
-0.105078
-0.050340
0.002002
0.034549
0.070311
0.095087
0.098534
0.085897
0.074267
0.037045
-0.016586
-0.063886
-0.107451
-0.139366
-0.168755
-0.192882
-0.208048
-0.209277
-0.193956
-0.153256
-0.102574
-0.050036
0.005393
0.042546
0.076050
0.091684
0.102356
0.093305
0.068276
0.029922
0.000259
-0.042486
-0.096954
-0.150604
-0.176330
-0.183497
-0.194321
-0.190665
-0.168947
-0.124918
-0.079081
-0.043490
0.009657
0.053059
0.098415
0.100254
0.097305
0.095537
0.074716
0.044605
-0.002123
-0.049556
-0.094839
-0.136723
-0.159614
-0.191803
-0.202494
-0.202425
-0.181851
-0.141114
-0.086936
-0.044254
-0.004380
0.039871
0.086996
0.119632
0.139248
0.122703
0.076099
0.039403
0.013737
-0.041456
-0.102016
-0.146138
-0.186548
-0.202282
-0.212780
-0.195611
-0.168522
-0.141448
-0.091715
-0.034943
0.012274
0.060699
0.090820
0.123339
0.120610
0.101346
0.088719
0.042053
0.007355
-0.038819
-0.099578
-0.145075
-0.179068
-0.195492
-0.198162
-0.190887
-0.171589
-0.132383
-0.094061
-0.048122
0.007778
0.045874
0.079200
0.099482
0.109137
0.102500
0.082170
0.039412
0.000351
-0.044804
-0.102236
-0.149135
-0.167007
-0.194960
-0.203833
-0.191959
-0.182408
-0.139961
-0.096611
-0.048976
0.001372
0.040634
0.063770
0.097722
0.097265
0.079599
0.056205
0.023773
-0.021260
-0.066857
-0.108832
-0.141062
-0.180520
-0.201987
-0.212956
-0.201988
-0.182059
-0.145079
-0.104132
-0.057868
-0.017124
0.015539
0.031449
0.077444
0.091544
0.084384
0.074156
0.033387
-0.017330
-0.066364
-0.127092
-0.166140
-0.189322
-0.212239
-0.223820
-0.207081
-0.181728
-0.148103
-0.110845
-0.064179
-0.005361
0.028655
0.070780
0.086008
0.078279
0.059991
0.038881
0.022029
-0.015454
-0.070690
-0.111673
-0.154190
-0.190681
-0.214928
-0.219080
-0.215491
-0.195618
-0.174971
-0.130025
-0.075821
-0.009485
0.029846
0.052386
0.083654
0.090692
0.069394
0.037735
0.015616
-0.027143
-0.064046
-0.114170
-0.167733
-0.212382
-0.229336
-0.226594
-0.214579
-0.199381
-0.170368
-0.132686
-0.078048
-0.027574
0.003990
0.037681
0.058928
0.067003
0.067838
0.041215
0.010395
-0.032542
-0.080576
-0.131746
-0.155670
-0.180192
-0.207192
-0.208944
-0.205966
-0.187412
-0.160566
-0.124624
-0.078528
-0.017909
0.018339
0.048924
0.081455
0.080296
0.067902
0.038152
0.011703
-0.031955
-0.079574
-0.127808
-0.162422
-0.192895
-0.216572
-0.221590
-0.220262
-0.187300
-0.142813
-0.099066
-0.057592
0.003121
0.041161
0.071847
0.095706
0.112192
0.098166
0.076285
0.042294
0.008706
-0.049775
-0.110505
-0.149579
-0.180639
-0.191627
-0.196795
-0.189870
-0.172990
-0.134884
-0.087593
-0.046117
0.014800
0.051042
0.082395
0.103439
0.101457
0.097190
0.080778
0.053640
0.004627
-0.032559
-0.091756
-0.132675
-0.168772
-0.167654
-0.173210
-0.170693
-0.150553
-0.113749
-0.072263
-0.009842
0.033476
0.064049
0.088360
0.145159
0.122866
0.115714
0.105683
0.066380
0.008425
-0.048925
-0.096546
-0.136395
-0.176054
-0.199319
-0.191364
-0.202768
-0.184730
-0.154709
-0.098666
-0.052166
-0.002174
0.032850
0.061318
0.084404
0.084197
0.076543
0.050728
0.016814
-0.024689
-0.088245
-0.143544
-0.190900
-0.238494
-0.247125
-0.226661
-0.218963
-0.207258
-0.174407
-0.143005
-0.095125
-0.046752
-0.017959
0.016836
0.046455
0.062530
0.063760
0.039971
-0.004406
-0.052889
-0.100843
-0.149034
-0.181388
-0.232506
-0.270465
-0.266965
-0.240517
-0.205734
-0.174251
-0.149613
-0.104058
-0.061551
-0.015424
0.027523
0.050988
0.047479
0.044117
0.030139
-0.003373
-0.047380
-0.100121
-0.154106
-0.199888
-0.229618
-0.254294
-0.269030
-0.261022
-0.244674
-0.229724
-0.167456
-0.095916
-0.030816
0.001513
0.030270
0.046123
0.044052
0.033474
0.017426
-0.013058
-0.054329
-0.098303
-0.142586
-0.195010
-0.236779
-0.255135
-0.257883
-0.248879
-0.225009
-0.195877
-0.157587
-0.111178
-0.065357
-0.022157
0.016904
0.042684
0.050604
0.028511
-0.000029
-0.033318
-0.067014
-0.109430
-0.156330
-0.224724
-0.239658
-0.256196
-0.261312
-0.255027
-0.225136
-0.179430
-0.118371
-0.053847
-0.010734
0.044757
0.081551
0.120307
0.151178
0.158515
0.147941
0.122052
0.088679
0.066018
0.042441
0.010330
0.006125
0.016903
0.046231
0.093456
0.152278
0.205238
0.283951
0.376057
0.455990
0.543897
0.607206
0.657907
0.716082
0.737355
0.765390
0.769957
0.731072
0.699483
0.645790
0.597805
0.567353
0.518580
0.506617
0.474056
0.477990
0.484878
0.450202
0.424656
0.417579
0.397419
0.383117
0.355816
0.304695
0.260444
0.211791
0.179410
0.128502
0.069335
0.011814
-0.044486
-0.085863
-0.122052
-0.134564
-0.133893
-0.111104
-0.083999
-0.051508
-0.006746
0.033822
0.063406
0.105489
0.133487
0.125957
0.119861
0.086208
0.044076
-0.001193
-0.046591
-0.086434
-0.128357
-0.165456
-0.178094
-0.194076
-0.184460
-0.165901
-0.138473
-0.101640
-0.057266
-0.011427
0.030251
0.059880
0.086830
0.093905
0.082838
0.053988
0.023679
-0.023564
-0.065002
-0.109884
-0.159485
-0.193082
-0.214428
-0.216252
-0.211826
-0.186976
-0.145344
-0.102510
-0.061250
-0.002466
0.032381
0.056437
0.101247
0.098024
0.089042
0.063341
0.018889
-0.028083
-0.067992
-0.121179
-0.154761
-0.174700
-0.224409
-0.229700
-0.209933
-0.178683
-0.134465
-0.089204
-0.048666
0.002095
0.045768
0.083354
0.099522
0.103046
0.104216
0.089552
0.065273
0.010541
-0.025692
-0.080494
-0.141596
-0.168623
-0.173433
-0.188290
-0.182944
-0.165267
-0.130600
-0.073951
-0.018888
0.021788
0.070450
0.100842
0.132837
0.140620
0.133524
0.104593
0.060329
0.012120
-0.009596
-0.045808
-0.099158
-0.141800
-0.162609
-0.166200
-0.151121
-0.118143
-0.089304
-0.051707
-0.004049
0.055027
0.096295
0.113507
0.152237
0.173884
0.161857
0.151570
0.113610
0.061708
0.023097
-0.023402
-0.074678
-0.106243
-0.122590
-0.118022
-0.098725
-0.072875
-0.053329
-0.010653
0.044736
0.092105
0.137920
0.159620
0.184855
0.200369
0.188825
0.157259
0.114446
0.073471
0.032608
-0.001309
-0.048228
-0.086261
-0.091028
-0.092406
-0.083792
-0.057005
-0.030478
0.006488
0.051995
0.106761
0.166465
0.203293
0.212391
0.205716
0.195045
0.166151
0.136472
0.111897
0.065202
0.008013
-0.045122
-0.081529
-0.100520
-0.110364
-0.103053
-0.085539
-0.046446
-0.000052
0.051730
0.095034
0.147907
0.180667
0.205929
0.217550
0.192346
0.149957
0.118823
0.070551
0.024934
-0.008290
-0.057637
-0.089818
-0.108637
-0.110395
-0.124895
-0.110253
-0.077968
-0.036669
0.012889
0.070288
0.116238
0.148038
0.148908
0.163144
0.140672
0.127210
0.089529
0.042163
-0.000105
-0.051931
-0.102076
-0.133636
-0.147025
-0.161040
-0.166824
-0.150765
-0.121523
-0.079962
-0.026058
0.031773
0.070097
0.096514
0.103008
0.110786
0.112330
0.082801
0.041803
0.001636
-0.043883
-0.091607
-0.145234
-0.168228
-0.195520
-0.210319
-0.200127
-0.178641
-0.134896
-0.102127
-0.059572
-0.016073
0.046717
0.066895
0.092008
0.091558
0.076642
0.061670
0.021643
-0.031560
-0.082677
-0.127676
-0.178051
-0.221369
-0.226138
-0.232053
-0.213544
-0.194137
-0.158700
-0.110517
-0.055633
-0.019364
0.030959
0.061555
0.084644
0.075017
0.050950
0.034272
0.019428
-0.021660
-0.070795
-0.118263
-0.167515
-0.207636
-0.229930
-0.243770
-0.227174
-0.202678
-0.174178
-0.129317
-0.073549
-0.023773
0.026923
0.062056
0.069839
0.083145
0.093099
0.064217
0.030340
-0.011274
-0.060258
-0.125618
-0.181786
-0.205567
-0.209436
-0.223099
-0.208656
-0.189754
-0.160884
-0.118554
-0.078965
-0.026474
0.021252
0.054609
0.092182
0.104421
0.087899
0.063237
0.033583
-0.005242
-0.046398
-0.101354
-0.144252
-0.178308
-0.211266
-0.231535
-0.231248
-0.200176
-0.170594
-0.100269
-0.036540
0.014457
0.044031
0.070905
0.102655
0.089625
0.061136
0.055153
0.036176
-0.021638
-0.072209
-0.092315
-0.136775
-0.176076
-0.197061
-0.210232
-0.207019
-0.194636
-0.154471
-0.106966
-0.054785
0.001516
0.041697
0.072733
0.090475
0.096266
0.091010
0.072356
0.021078
-0.025808
-0.072054
-0.108550
-0.152109
-0.185143
-0.208049
-0.211684
-0.195717
-0.180454
-0.146415
-0.102656
-0.056418
-0.004236
0.033739
0.062891
0.077801
0.084530
0.068787
0.058098
0.024050
-0.015266
-0.061742
-0.111906
-0.160090
-0.192132
-0.219391
-0.229374
-0.219626
-0.190655
-0.155178
-0.119161
-0.078103
-0.013497
0.037564
0.060763
0.062113
0.078899
0.079801
0.062617
0.024175
-0.020382
-0.064095
-0.116870
-0.180091
-0.193694
-0.204914
-0.212329
-0.223407
-0.213268
-0.168638
-0.119448
-0.075662
-0.024605
0.020654
0.040782
0.054274
0.056953
0.062175
0.044335
0.025815
-0.014064
-0.068629
-0.122629
-0.167011
-0.202718
-0.224572
-0.230573
-0.222208
-0.203288
-0.158973
-0.131036
-0.089736
-0.046656
0.007095
0.039470
0.069191
0.068843
0.058643
0.044452
0.002661
-0.045566
-0.086351
-0.144828
-0.191985
-0.227992
-0.246233
-0.241044
-0.222961
-0.192408
-0.160785
-0.124355
-0.076124
-0.032297
0.012697
0.038214
0.061895
0.069723
0.061174
0.031530
-0.004785
-0.051102
-0.093831
-0.145951
-0.194244
-0.224932
-0.247896
-0.246855
-0.236600
-0.212997
-0.175084
-0.142897
-0.091748
-0.038594
0.017326
0.043412
0.059059
0.068647
0.061198
0.036037
-0.003541
-0.047648
-0.088125
-0.128861
-0.174374
-0.213818
-0.231664
-0.245085
-0.252024
-0.232194
-0.191378
-0.149492
-0.104449
-0.060713
-0.018786
0.029207
0.058921
0.062463
0.055169
0.030038
-0.011705
-0.052620
-0.094110
-0.155007
-0.183587
-0.214427
-0.227437
-0.230958
-0.237734
-0.214327
-0.182265
-0.142398
-0.095789
-0.049973
-0.000715
0.034678
0.069952
0.069801
0.034675
0.018496
-0.003541
-0.041311
-0.084839
-0.135490
-0.180746
-0.217019
-0.240761
-0.241885
-0.236701
-0.207646
-0.172916
-0.147925
-0.094935
-0.051841
-0.012025
0.013779
0.046908
0.058719
0.057255
0.039478
0.001024
-0.019949
-0.070216
-0.121175
-0.167467
-0.195819
-0.220610
-0.223785
-0.213468
-0.188402
-0.150834
-0.104555
-0.051746
0.009894
0.049119
0.083425
0.093435
0.094881
0.076332
0.053213
0.041942
0.004767
-0.052940
-0.107025
-0.142881
-0.181313
-0.216244
-0.232689
-0.227370
-0.205256
-0.155973
-0.108949
-0.051691
0.006774
0.053670
0.096943
0.114643
0.122393
0.125933
0.100799
0.060037
0.014744
-0.019943
-0.071897
-0.116179
-0.161270
-0.187015
-0.203634
-0.191158
-0.173164
-0.136497
-0.091716
-0.060148
-0.020056
0.022427
0.059519
0.073100
0.092859
0.081765
0.063638
0.027820
-0.011957
-0.062799
-0.115756
-0.163957
-0.212104
-0.228364
-0.234229
-0.223408
-0.198660
-0.168022
-0.122890
-0.096754
-0.054258
-0.013108
0.024289
0.049503
0.053814
0.047059
0.012673
-0.027690
-0.065164
-0.099302
-0.140867
-0.183045
-0.228252
-0.255520
-0.253956
-0.236064
-0.219419
-0.184076
-0.145047
-0.106750
-0.058134
-0.012240
0.013233
0.034664
0.041078
0.033959
0.012890
-0.017085
-0.069084
-0.110271
-0.158052
-0.197418
-0.244088
-0.261380
-0.266982
-0.250230
-0.241358
-0.204109
-0.166019
-0.114467
-0.064461
-0.015575
0.030255
0.043283
0.038387
0.027580
0.001612
-0.027261
-0.063781
-0.102203
-0.149855
-0.197581
-0.247486
-0.267162
-0.275304
-0.271949
-0.248919
-0.217430
-0.171561
-0.123741
-0.076761
-0.011914
0.031460
0.047715
0.054650
0.046976
0.025394
-0.015608
-0.068047
-0.120790
-0.178193
-0.202048
-0.231695
-0.267218
-0.267765
-0.255237
-0.240837
-0.219005
-0.168691
-0.116273
-0.072553
-0.029021
0.012152
0.035200
0.036878
0.035855
0.018698
0.013960
-0.012238
-0.050498
-0.086163
-0.127784
-0.146362
-0.153894
-0.146678
-0.138375
-0.094791
-0.038455
0.020306
0.100006
0.168821
0.228108
0.287818
0.335944
0.373856
0.411543
0.431851
0.431165
0.428290
0.415984
0.398907
0.391104
0.394230
0.418474
0.447617
0.487123
0.541795
0.609936
0.656403
0.697132
0.742051
0.770593
0.786199
0.781654
0.761422
0.729968
0.653007
0.544864
0.437649
0.316662
0.222993
0.132912
0.058460
-0.012185
-0.064444
-0.078805
-0.055002
-0.033961
0.009177
0.061191
0.085785
0.119587
0.154107
0.165157
0.156142
0.154622
0.124123
0.087906
0.039720
-0.008490
-0.061987
-0.107901
-0.143076
-0.177166
-0.189369
-0.182328
-0.159410
-0.137758
-0.095615
-0.041869
-0.013823
0.031035
0.069920
0.089941
0.100706
0.107219
0.078983
0.041566
-0.012152
-0.060573
-0.102504
-0.154003
-0.192273
-0.206664
-0.214533
-0.194686
-0.183766
-0.146943
-0.107532
-0.060061
-0.018044
0.026484
0.060864
0.077448
0.082125
0.081946
0.059096
0.023313
-0.013189
-0.055345
-0.109717
-0.144428
-0.162922
-0.184438
-0.211775
-0.208540
-0.183798
-0.144085
-0.097921
-0.038125
0.000736
0.047801
0.076980
0.099606
0.100331
0.074952
0.068850
0.042889
0.004493
-0.062242
-0.108614
-0.139186
-0.173105
-0.199467
-0.193406
-0.184511
-0.155705
-0.123029
-0.083619
-0.046263
0.010661
0.048157
0.088450
0.125102
0.130330
0.126772
0.104793
0.075080
0.010949
-0.043397
-0.069106
-0.111333
-0.152436
-0.172741
-0.178089
-0.164510
-0.137241
-0.109794
-0.058815
-0.012217
0.043629
0.094915
0.131521
0.153519
0.161414
0.150309
0.128144
0.085486
0.057126
0.009452
-0.042196
-0.081929
-0.109929
-0.138696
-0.147239
-0.123877
-0.084789
-0.054187
-0.024615
0.026759
0.071626
0.126425
0.152005
0.166135
0.187744
0.189196
0.167719
0.133586
0.095075
0.053690
0.009947
-0.033940
-0.062700
-0.078693
-0.089417
-0.100842
-0.074066
-0.047978
0.002726
0.044189
0.091409
0.144047
0.180274
0.195067
0.199743
0.204222
0.181301
0.142703
0.094751
0.064322
0.020197
-0.031888
-0.066857
-0.089857
-0.090888
-0.084734
-0.061042
-0.037491
0.004952
0.055189
0.106609
0.144522
0.180070
0.202077
0.211855
0.198163
0.165438
0.135396
0.095285
0.060958
0.006549
-0.034558
-0.075086
-0.097418
-0.114141
-0.109010
-0.079433
-0.048218
-0.000179
0.046323
0.089058
0.132543
0.164515
0.171695
0.189024
0.181391
0.152272
0.118486
0.074390
0.029092
-0.015817
-0.072319
-0.114782
-0.134983
-0.156175
-0.145974
-0.124218
-0.090088
-0.046948
-0.008716
0.043767
0.070638
0.110279
0.140376
0.149510
0.142737
0.117664
0.085846
0.046874
-0.020488
-0.075529
-0.108902
-0.139210
-0.170922
-0.172918
-0.157005
-0.152999
-0.113797
-0.070234
-0.032410
0.010044
0.055942
0.087001
0.109562
0.118578
0.114358
0.088984
0.036614
0.002829
-0.048255
-0.107929
-0.139670
-0.174858
-0.207417
-0.204419
-0.194659
-0.176931
-0.145404
-0.096003
-0.047727
-0.008608
0.021975
0.052162
0.084203
0.083040
0.075496
0.068786
0.029319
-0.022460
-0.053562
-0.110335
-0.163537
-0.188384
-0.221753
-0.225943
-0.221288
-0.189036
-0.158569
-0.107945
-0.057136
-0.013610
0.017566
0.052630
0.066460
0.083156
0.083636
0.071569
0.023553
-0.016076
-0.063843
-0.110958
-0.161649
-0.191254
-0.214329
-0.218878
-0.222421
-0.204819
-0.160556
-0.116821
-0.070844
-0.017918
0.026056
0.058612
0.081090
0.091843
0.097346
0.099865
0.074652
0.024980
-0.028795
-0.092646
-0.141080
-0.175297
-0.196031
-0.205150
-0.197197
-0.179878
-0.149353
-0.100623
-0.051694
-0.015055
0.033575
0.066082
0.084587
0.094471
0.095061
0.079742
0.054372
0.004155
-0.036833
-0.083721
-0.138836
-0.164839
-0.190278
-0.194272
-0.193594
-0.163738
-0.139332
-0.104689
-0.054460
-0.002591
0.038128
0.075117
0.093291
0.099776
0.092263
0.069391
0.030192
-0.020185
-0.053193
-0.094017
-0.132725
-0.163487
-0.188224
-0.202460
-0.182861
-0.169584
-0.133490
-0.082462
-0.045190
-0.006613
0.039031
0.083564
0.104989
0.088219
0.096553
0.074592
0.028069
-0.018649
-0.053789
-0.095181
-0.129312
-0.179110
-0.209057
-0.223695
-0.220096
-0.198715
-0.154386
-0.106916
-0.056037
-0.011647
0.035476
0.071596
0.113912
0.115657
0.111504
0.079301
0.031471
-0.013949
-0.058766
-0.092851
-0.134384
-0.189651
-0.243906
-0.221402
-0.199704
-0.180103
-0.152148
-0.123478
-0.074393
-0.007517
0.030563
0.055221
0.079861
0.091878
0.088669
0.069107
0.032896
-0.010659
-0.055533
-0.103704
-0.152147
-0.179312
-0.201214
-0.220292
-0.220175
-0.192886
-0.153649
-0.113577
-0.069617
-0.037433
0.017303
0.051203
0.087738
0.100662
0.090153
0.061408
0.013080
-0.013358
-0.059346
-0.119368
-0.167952
-0.197947
-0.225877
-0.227860
-0.211253
-0.205784
-0.167343
-0.121756
-0.070869
-0.009424
0.029149
0.051733
0.080433
0.070459
0.068578
0.042200
0.017619
-0.028129
-0.067380
-0.123395
-0.156000
-0.194102
-0.235869
-0.238524
-0.214718
-0.192931
-0.163187
-0.124050
-0.091759
-0.043674
0.003766
0.037156
0.075036
0.079307
0.081811
0.063679
0.038653
-0.016645
-0.077942
-0.122903
-0.163820
-0.203009
-0.231158
-0.243334
-0.216644
-0.203913
-0.162138
-0.123723
-0.094202
-0.039346
0.004380
0.044030
0.081285
0.100236
0.084379
0.057399
0.016205
-0.026671
-0.062146
-0.116424
-0.160633
-0.196692
-0.233417
-0.237938
-0.223415
-0.213685
-0.168693
-0.133498
-0.082014
-0.033610
0.021276
0.049168
0.072138
0.082594
0.051041
0.051225
0.024525
-0.016077
-0.056973
-0.092480
-0.152970
-0.186559
-0.206736
-0.212743
-0.204889
-0.182246
-0.155666
-0.101781
-0.049556
-0.001049
0.044221
0.067686
0.082420
0.089902
0.096573
0.079094
0.040831
0.004135
-0.025413
-0.079325
-0.129771
-0.163987
-0.183907
-0.200435
-0.195449
-0.168427
-0.135263
-0.084420
-0.045579
-0.002187
0.041606
0.075748
0.104239
0.100771
0.110552
0.095774
0.046396
0.014909
-0.017730
-0.059984
-0.096680
-0.134918
-0.160693
-0.172330
-0.164957
-0.143080
-0.115337
-0.065831
-0.021797
0.023609
0.058392
0.101498
0.130499
0.136940
0.110114
0.094264
0.055691
0.010133
-0.049918
-0.105205
-0.137318
-0.171355
-0.203044
-0.217093
-0.202325
-0.187937
-0.147649
-0.115229
-0.068279
-0.024220
0.021852
0.057652
0.083857
0.092993
0.079546
0.052247
0.018198
-0.037968
-0.094377
-0.133899
-0.168763
-0.200671
-0.218614
-0.232401
-0.239981
-0.233067
-0.185931
-0.135589
-0.094479
-0.047792
-0.004527
0.031237
0.053837
0.049485
0.048208
0.031799
-0.015524
-0.061543
-0.111348
-0.149853
-0.192261
-0.220869
-0.244716
-0.251098
-0.255292
-0.239412
-0.211051
-0.169436
-0.105486
-0.040584
0.001566
0.037210
0.046606
0.042023
0.045018
0.023063
-0.006573
-0.045902
-0.096211
-0.148344
-0.182342
-0.224975
-0.251187
-0.256210
-0.248419
-0.239963
-0.200387
-0.152807
-0.110909
-0.058066
-0.015552
0.021239
0.042182
0.041711
0.039205
0.018502
-0.012218
-0.042059
-0.079027
-0.130121
-0.187265
-0.217440
-0.250080
-0.257952
-0.248767
-0.220358
-0.185021
-0.142640
-0.109517
-0.064833
-0.028359
0.001106
0.028352
0.032524
0.030748
0.007724
-0.032103
-0.079046
-0.119873
-0.159812
-0.194898
-0.232153
-0.248464
-0.235329
-0.218930
-0.181867
-0.139095
-0.078778
-0.010314
0.050350
0.113733
0.149372
0.180472
0.193758
0.205782
0.197486
0.181020
0.176686
0.159899
0.148682
0.138109
0.150824
0.146820
0.171969
0.226877
0.282083
0.343366
0.416966
0.506754
0.603143
0.678123
0.742099
0.791874
0.838592
0.833189
0.796282
0.747292
0.717831
0.658233
0.591160
0.530928
0.467944
0.405673
0.324566
0.276917
0.234106
0.214794
0.210638
0.213751
0.216523
0.209514
0.214585
0.233931
0.238591
0.223521
0.190800
0.149559
0.088601
0.039624
-0.008420
-0.048127
-0.102357
-0.134552
-0.152412
-0.146472
-0.124850
-0.094020
-0.058979
-0.025511
0.027564
0.067247
0.096435
0.116156
0.116562
0.106133
0.086254
0.052134
0.011672
-0.042861
-0.093419
-0.129295
-0.162729
-0.189559
-0.201912
-0.191422
-0.169695
-0.133987
-0.095887
-0.064498
-0.018149
0.022703
0.057953
0.089991
0.108377
0.093785
0.069865
0.032123
-0.017893
-0.063541
-0.103955
-0.145207
-0.182594
-0.200443
-0.217054
-0.208130
-0.185699
-0.144195
-0.097231
-0.055529
-0.003548
0.041447
0.061900
0.069122
0.093647
0.097678
0.073902
0.036995
-0.005055
-0.045422
-0.089591
-0.130685
-0.159154
-0.190276
-0.209482
-0.196530
-0.178585
-0.145236
-0.090945
-0.047301
-0.006278
0.042584
0.086413
0.119036
0.139097
0.119178
0.093523
0.066427
0.023393
-0.025176
-0.072120
-0.110531
-0.142769
-0.164491
-0.183015
-0.170534
-0.146146
-0.110424
-0.070166
-0.011124
0.032083
0.081172
0.117039
0.138548
0.152014
0.143959
0.124041
0.093058
0.044470
0.004458
-0.040676
-0.078446
-0.120189
-0.151227
-0.159588
-0.131348
-0.112894
-0.086962
-0.038746
0.025733
0.065809
0.102224
0.143108
0.167697
0.184962
0.184901
0.170993
0.134772
0.080649
0.029529
-0.013308
-0.053051
-0.078666
-0.104095
-0.126103
-0.092619
-0.068908
-0.041603
-0.001460
0.048230
0.093016
0.137375
0.177305
0.200047
0.221202
0.206767
0.188889
0.163050
0.112680
0.065219
0.019282
-0.022900
-0.060228
-0.089695
-0.101630
-0.096322
-0.065783
-0.030722
0.008241
0.056542
0.100432
0.140161
0.184476
0.208921
0.221071
0.219061
0.193587
0.141787
0.093979
0.062481
0.025368
-0.023210
-0.057010
-0.083295
-0.097078
-0.095333
-0.070877
-0.044376
0.000955
0.044888
0.095495
0.127107
0.152449
0.181519
0.193031
0.182725
0.159145
0.120506
0.081138
0.031416
-0.005765
-0.051640
-0.083893
-0.105073
-0.130154
-0.122394
-0.099144
-0.066740
-0.020057
0.017675
0.061605
0.102014
0.139691
0.170731
0.162659
0.148560
0.133380
0.099425
0.043190
-0.003850
-0.054715
-0.099936
-0.136905
-0.152659
-0.169459
-0.173071
-0.154126
-0.120448
-0.071568
-0.019844
0.031067
0.062929
0.093750
0.116191
0.123627
0.109487
0.081471
0.038472
-0.007292
-0.055201
-0.096246
-0.142791
-0.176524
-0.185373
-0.198627
-0.199021
-0.184781
-0.154790
-0.107125
-0.053924
-0.006799
0.026188
0.055469
0.083781
0.097861
0.097600
0.072568
0.038273
-0.005086
-0.059324
-0.125921
-0.162507
-0.170488
-0.193746
-0.208919
-0.216046
-0.210838
-0.161257
-0.103521
-0.054161
-0.015630
0.024057
0.051631
0.077124
0.093616
0.086173
0.058173
0.015794
-0.018668
-0.056933
-0.107944
-0.158196
-0.196521
-0.222008
-0.229592
-0.200844
-0.182091
-0.157004
-0.114303
-0.068273
-0.017050
0.020612
0.058540
0.068926
0.076182
0.067671
0.057574
0.022137
-0.010741
-0.050823
-0.092266
-0.138458
-0.175252
-0.201918
-0.217729
-0.205759
-0.182356
-0.149867
-0.100171
-0.054897
-0.012660
0.032757
0.070909
0.097161
0.097436
0.102620
0.075432
0.027115
-0.012987
-0.062707
-0.101774
-0.151567
-0.181161
-0.192827
-0.201816
-0.205468
-0.186999
-0.158942
-0.099546
-0.042426
-0.002137
0.035927
0.074151
0.094933
0.110976
0.105366
0.076438
0.034251
-0.021371
-0.060170
-0.120796
-0.162273
-0.197604
-0.202494
-0.197935
-0.187856
-0.176117
-0.145775
-0.094888
-0.045573
-0.014760
0.033811
0.070789
0.090397
0.102683
0.103512
0.082340
0.044047
0.004890
-0.044000
-0.117076
-0.156594
-0.187497
-0.211745
-0.211881
-0.186079
-0.167244
-0.138055
-0.099792
-0.049259
0.003751
0.033763
0.057754
0.072733
0.073879
0.080084
0.072010
0.035663
-0.016003
-0.060465
-0.110910
-0.144385
-0.171931
-0.205527
-0.222962
-0.216678
-0.185421
-0.157611
-0.116107
-0.076432
-0.021892
0.021650
0.060993
0.079996
0.091002
0.084594
0.055243
0.026021
-0.026298
-0.066247
-0.123347
-0.178190
-0.198493
-0.204943
-0.203028
-0.217607
-0.187672
-0.153860
-0.110649
-0.067142
-0.029053
0.010658
0.046800
0.073869
0.076224
0.061374
0.043781
0.017091
-0.017122
-0.063926
-0.113391
-0.155772
-0.183045
-0.209342
-0.231192
-0.224849
-0.188082
-0.157801
-0.125234
-0.075768
-0.019892
0.022889
0.053618
0.064653
0.085263
0.062016
0.057139
0.026030
-0.020528
-0.064412
-0.114630
-0.162177
-0.201341
-0.215769
-0.226152
-0.224429
-0.194268
-0.165133
-0.113582
-0.063595
-0.022724
0.008997
0.040546
0.080289
0.079891
0.077909
0.046090
0.011588
-0.025516
-0.070922
-0.118551
-0.164861
-0.198516
-0.223025
-0.235120
-0.233767
-0.210186
-0.171517
-0.125511
-0.080251
-0.029996
0.011824
0.027427
0.056012
0.071577
0.074493
0.040403
0.018986
-0.022187
-0.065796
-0.118291
-0.168228
-0.192192
-0.217486
-0.228829
-0.220331
-0.187743
-0.175407
-0.141739
-0.062922
-0.008031
0.036714
0.072366
0.090750
0.098910
0.097294
0.084233
0.048708
0.006279
-0.036682
-0.082592
-0.129244
-0.157104
-0.179659
-0.187382
-0.196213
-0.171952
-0.129124
-0.082698
-0.036438
0.015626
0.045811
0.083037
0.105186
0.110119
0.100803
0.074906
0.043666
-0.001944
-0.040625
-0.090261
-0.135063
-0.159669
-0.175709
-0.172016
-0.167089
-0.143136
-0.103055
-0.065579
-0.023667
0.039420
0.081621
0.110404
0.133842
0.134888
0.134020
0.117011
0.077338
0.027457
-0.031427
-0.078449
-0.118323
-0.169964
-0.182316
-0.196195
-0.186711
-0.180098
-0.135025
-0.091720
-0.043928
-0.000020
0.038461
0.079813
0.096288
0.098131
0.090748
0.080699
0.030447
-0.022179
-0.074472
-0.121627
-0.151696
-0.183184
-0.216614
-0.218585
-0.225341
-0.204220
-0.163890
-0.124144
-0.084229
-0.031672
0.010157
0.035953
0.055167
0.066569
0.059548
0.037602
0.002958
-0.026864
-0.073732
-0.110448
-0.163390
-0.198523
-0.233144
-0.242934
-0.245596
-0.225237
-0.201325
-0.158353
-0.117567
-0.076587
-0.028865
0.020398
0.065611
0.050097
0.049576
0.029656
0.003187
-0.036006
-0.089013
-0.143088
-0.180678
-0.214026
-0.234196
-0.245926
-0.242640
-0.219223
-0.183514
-0.149935
-0.106324
-0.055894
-0.014029
0.024666
0.048878
0.044335
0.047213
0.027368
0.003859
-0.050142
-0.103502
-0.157635
-0.198462
-0.226707
-0.236925
-0.251136
-0.254293
-0.218740
-0.186012
-0.145870
-0.103791
-0.055792
-0.010476
0.025879
0.052289
0.051582
0.046206
0.030816
-0.012442
-0.050830
-0.103300
-0.148237
-0.189407
-0.228845
-0.265754
-0.254755
-0.264787
-0.251906
-0.214598
-0.157569
-0.117245
-0.047779
0.001356
0.055985
0.080978
0.088368
0.100088
0.095022
0.082460
0.064148
0.020998
-0.018353
-0.041586
-0.059562
-0.064931
-0.067955
-0.043201
0.015263
0.070702
0.144575
0.221794
0.307987
0.383664
0.451101
0.517734
0.541668
0.583472
0.595023
0.598370
0.606604
0.580074
0.576457
0.573447
0.560422
0.547340
0.525610
0.526438
0.527460
0.548637
0.578973
0.591326
0.622065
0.602564
0.570639
0.541884
0.498651
0.444368
0.381043
0.293565
0.208789
0.121596
0.055855
0.014240
-0.025224
-0.064108
-0.082311
-0.092246
-0.083438
-0.056864
-0.038555
0.009795
0.058549
0.094234
0.125303
0.141959
0.149038
0.143030
0.132117
0.096017
0.045194
-0.018871
-0.077187
-0.112749
-0.131154
-0.162745
-0.178279
-0.176180
-0.151624
-0.131447
-0.092795
-0.041265
-0.005139
0.039533
0.073990
0.091025
0.086885
0.103969
0.082384
0.042830
-0.005137
-0.056018
-0.093293
-0.141046
-0.174819
-0.191645
-0.223389
-0.225322
-0.203440
-0.153295
-0.110141
-0.046519
0.003518
0.047436
0.068888
0.086377
0.091070
0.090560
0.070699
0.040643
-0.001317
-0.056570
-0.099350
-0.128845
-0.159418
-0.183591
-0.195133
-0.190336
-0.160264
-0.128134
-0.079519
-0.033030
0.011908
0.048418
0.084230
0.116612
0.125228
0.116962
0.097138
0.057533
0.021128
-0.024480
-0.079782
-0.131164
-0.162065
-0.183122
-0.175065
-0.181786
-0.156948
-0.111086
-0.077576
-0.021063
0.023929
0.068287
0.105366
0.128705
0.135781
0.139146
0.117986
0.098964
0.062377
-0.003847
-0.042295
-0.074757
-0.118878
-0.149853
-0.143226
-0.135401
-0.131721
-0.085901
-0.044518
0.009967
0.062344
0.099729
0.126779
0.158271
0.162215
0.177984
0.153799
0.117030
0.072460
0.022871
0.001317
-0.038246
-0.065650
-0.091412
-0.104145
-0.111228
-0.073663
-0.038820
-0.005211
0.036720
0.086188
0.129605
0.177346
0.202475
0.204075
0.198212
0.187688
0.146046
0.112034
0.061392
0.015154
-0.020887
-0.043937
-0.058047
-0.065760
-0.075384
-0.052236
-0.013862
0.019269
0.069487
0.125387
0.152367
0.183775
0.210094
0.219781
0.214984
0.197195
0.162390
0.126713
0.084767
0.030962
-0.012947
-0.045380
-0.072974
-0.090097
-0.081701
-0.059640
-0.024276
0.017172
0.054143
0.115010
0.172647
0.192260
0.209603
0.214244
0.213923
0.196976
0.175021
0.118567
0.067779
0.016754
-0.033596
-0.080286
-0.117667
-0.132144
-0.110381
-0.080277
-0.043987
-0.004709
0.045628
0.088096
0.130513
0.166821
0.180905
0.193989
0.186709
0.162977
0.133141
0.090828
0.043561
-0.006851
-0.060940
-0.094468
-0.127861
-0.143449
-0.139726
-0.116700
-0.076026
-0.039315
-0.010824
0.036871
0.064549
0.109586
0.136788
0.152067
0.143592
0.119008
0.086297
0.045287
-0.005442
-0.051666
-0.099444
-0.141196
-0.159218
-0.163002
-0.168760
-0.147379
-0.105890
-0.067466
-0.021599
0.013754
0.051650
0.065270
0.087502
0.117002
0.111318
0.081488
0.038352
0.008158
-0.031619
-0.089832
-0.143118
-0.178890
-0.193315
-0.200258
-0.191492
-0.176199
-0.155455
-0.108201
-0.050043
-0.001561
0.037036
0.068071
0.089275
0.098191
0.103534
0.083552
0.047284
0.006624
-0.045224
-0.085685
-0.139345
-0.176520
-0.215950
-0.230971
-0.207338
-0.177170
-0.138043
-0.095569
-0.050528
-0.013198
0.033398
0.076539
0.098712
0.101749
0.097910
0.082524
0.049519
0.009742
-0.029783
-0.084965
-0.133747
-0.171358
-0.190841
-0.182134
-0.173948
-0.156138
-0.121375
-0.091270
-0.049077
0.001962
0.048486
0.086480
0.102434
0.101063
0.099755
0.078057
0.061455
0.014982
-0.037032
-0.076114
-0.111831
-0.154196
-0.170941
-0.178867
-0.177786
-0.165921
-0.123808
-0.092958
-0.030048
0.018419
0.066938
0.093235
0.099531
0.120718
0.114971
0.097563
0.035988
0.002205
-0.028349
-0.076512
-0.125981
-0.161516
-0.195144
-0.204024
-0.179508
-0.160674
-0.133591
-0.097187
-0.047486
0.013187
0.047423
0.081843
0.106226
0.116560
0.113893
0.104840
0.067002
0.031650
-0.007165
-0.063728
-0.127702
-0.159726
-0.184971
-0.187884
-0.178590
-0.157381
-0.115696
-0.076998
-0.041031
0.005197
0.049959
0.073805
0.102737
0.113096
0.109831
0.096654
0.052212
-0.000226
-0.029761
-0.073654
-0.114034
-0.144449
-0.171846
-0.189168
-0.177296
-0.165114
-0.138306
-0.088547
-0.040859
0.014133
0.051152
0.077517
0.105059
0.116356
0.102787
0.080351
0.044266
0.004500
-0.031543
-0.082689
-0.127210
-0.165034
-0.182781
-0.195912
-0.180253
-0.164807
-0.133280
-0.088685
-0.046777
0.001862
0.051554
0.075736
0.101342
0.107015
0.100956
0.091734
0.049115
0.007364
-0.055570
-0.112784
-0.166685
-0.190237
-0.194788
-0.196505
-0.204008
-0.172795
-0.128777
-0.095656
-0.050402
-0.000386
0.024219
0.039101
0.086802
0.111993
0.099401
0.085631
0.048796
0.001965
-0.045402
-0.101797
-0.145049
-0.176370
-0.195991
-0.205458
-0.205008
-0.192622
-0.154076
-0.093698
-0.063304
-0.011587
0.026676
0.053280
0.079411
0.101050
0.100070
0.083264
0.051073
0.005997
-0.040766
-0.090249
-0.131502
-0.170258
-0.197947
-0.199291
-0.199336
-0.176083
-0.145352
-0.114237
-0.069363
-0.013448
0.032141
0.060607
0.084696
0.101770
0.098754
0.081116
0.046253
0.008581
-0.043251
-0.083207
-0.128148
-0.164741
-0.189373
-0.203481
-0.175478
-0.154673
-0.129099
-0.085599
-0.040415
0.021136
0.065052
0.087686
0.107591
0.118066
0.113165
0.095387
0.069608
0.033753
-0.011281
-0.062899
-0.102048
-0.133659
-0.167281
-0.169833
-0.156171
-0.143672
-0.128165
-0.087092
-0.027663
0.017286
0.054087
0.084934
0.110810
0.117733
0.122235
0.115941
0.077442
0.035489
-0.000162
-0.045445
-0.081167
-0.126299
-0.145375
-0.158063
-0.133780
-0.118572
-0.086413
-0.051615
0.004334
0.046727
0.082182
0.126593
0.144807
0.152836
0.146618
0.120680
0.088313
0.042608
-0.005294
-0.057456
-0.099368
-0.139654
-0.165506
-0.173712
-0.177451
-0.163705
-0.125662
-0.086064
-0.053362
0.000065
0.036018
0.074066
0.095799
0.099884
0.088358
0.078594
0.041068
0.007301
-0.045936
-0.099626
-0.144423
-0.157855
-0.181508
-0.191842
-0.184230
-0.182851
-0.146882
-0.111839
-0.083069
-0.022440
0.014983
0.044100
0.063174
0.065695
0.055165
0.048468
0.028169
-0.026266
-0.075421
-0.130331
-0.190603
-0.214712
-0.217206
-0.218952
-0.211422
-0.205271
-0.168957
-0.119436
-0.070572
-0.023554
0.011335
0.050791
0.073342
0.082218
0.080608
0.048390
0.015485
-0.031704
-0.076370
-0.122597
-0.154548
-0.192256
-0.210815
-0.222339
-0.210528
-0.197679
-0.163653
-0.127292
-0.086820
-0.043647
0.002267
0.039771
0.048639
0.061271
0.072807
0.055118
0.010843
-0.032366
-0.062879
-0.106293
-0.160264
-0.196568
-0.227204
-0.226664
-0.227766
-0.210503
-0.177476
-0.130719
-0.085453
-0.037069
-0.003642
0.029036
0.045530
0.057360
0.054129
0.034138
0.006394
-0.026533
-0.077887
-0.109868
-0.144123
-0.180288
-0.197953
-0.188426
-0.174781
-0.149316
-0.113617
-0.056581
-0.001365
0.065483
0.129311
0.172152
0.188212
0.205127
0.219121
0.212568
0.216053
0.196937
0.178946
0.153266
0.129902
0.132678
0.154675
0.176802
0.201866
0.259693
0.301826
0.374730
0.460288
0.553196
0.624547
0.691808
0.751602
0.787449
0.809156
0.794223
0.755468
0.719412
0.664361
0.599568
0.538347
0.486142
0.420562
0.346720
0.290671
0.260064
0.234344
0.233140
0.231562
0.222051
0.229341
0.237191
0.225626
0.206443
0.193456
0.167587
0.127133
0.087000
0.034649
-0.021505
-0.072867
-0.109993
-0.137037
-0.142483
-0.138172
-0.116264
-0.095157
-0.058265
-0.017194
0.042578
0.075835
0.112051
0.116893
0.124242
0.118835
0.103471
0.070374
0.037887
-0.015508
-0.079175
-0.120320
-0.146416
-0.170234
-0.180560
-0.174836
-0.159440
-0.126557
-0.095933
-0.039398
0.015633
0.058978
0.086535
0.107759
0.109630
0.100756
0.072826
0.048054
0.012484
-0.046735
-0.091861
-0.144072
-0.170595
-0.184322
-0.175203
-0.168702
-0.146903
-0.126468
-0.086549
-0.046158
0.003337
0.047992
0.089149
0.112575
0.116658
0.104057
0.093052
0.057736
0.016682
-0.033533
-0.067534
-0.102776
-0.135697
-0.175287
-0.185818
-0.169672
-0.147432
-0.110029
-0.067491
-0.025030
0.029099
0.070072
0.107188
0.125273
0.135357
0.136677
0.111313
0.086111
0.042118
0.002033
-0.047985
-0.094139
-0.130721
-0.146848
-0.157220
-0.156496
-0.131954
-0.100090
-0.052634
-0.005948
0.045835
0.097451
0.136970
0.151620
0.160413
0.160149
0.133207
0.105101
0.061215
0.027819
-0.018010
-0.057252
-0.092336
-0.103557
-0.116651
-0.111094
-0.091114
-0.075469
-0.017788
0.026670
0.071288
0.122878
0.151462
0.166068
0.173106
0.176841
0.152107
0.124332
0.083494
0.073130
0.033029
-0.030781
-0.074212
-0.083486
-0.082855
-0.073506
-0.060711
-0.026486
0.026210
0.059440
0.107466
0.149389
0.181672
0.210179
0.231138
0.220570
0.195104
0.171527
0.129611
0.076685
0.026716
-0.012097
-0.042347
-0.054503
-0.058970
-0.050668
-0.029717
-0.005531
0.027189
0.069540
0.110119
0.162636
0.217101
0.237402
0.239276
0.222623
0.199689
0.173284
0.131269
0.079928
0.044836
-0.007407
-0.053484
-0.081207
-0.088856
-0.082210
-0.052809
-0.032118
0.009183
0.063174
0.106455
0.144967
0.180212
0.201476
0.203252
0.195899
0.178855
0.150928
0.117596
0.067108
0.025655
-0.036058
-0.087017
-0.104873
-0.104919
-0.097792
-0.082351
-0.065155
-0.020309
0.030274
0.076514
0.110091
0.145621
0.164370
0.172198
0.164856
0.139614
0.111789
0.066139
0.018970
-0.029699
-0.091727
-0.132214
-0.140229
-0.145078
-0.138008
-0.124163
-0.101847
-0.056450
-0.012324
0.024474
0.076334
0.109836
0.120872
0.115852
0.118119
0.100559
0.069453
0.018862
-0.029104
-0.076514
-0.121375
-0.147314
-0.161806
-0.173290
-0.172326
-0.156561
-0.127270
-0.084260
-0.039727
0.006762
0.052070
0.086728
0.103357
0.099734
0.096995
0.075770
0.051486
0.015795
-0.030017
-0.082347
-0.134238
-0.163574
-0.206629
-0.202983
-0.186871
-0.162744
-0.144035
-0.109819
-0.065934
-0.033485
0.023362
0.070071
0.086720
0.110542
0.097350
0.075271
0.046415
0.007193
-0.034868
-0.081772
-0.133077
-0.155760
-0.187317
-0.195574
-0.193886
-0.170599
-0.145670
-0.098658
-0.057339
-0.017313
0.029534
0.071975
0.081226
0.096010
0.089400
0.049704
0.025408
0.005462
-0.023488
-0.071035
-0.105804
-0.149730
-0.181761
-0.196243
-0.188099
-0.165529
-0.138500
-0.098150
-0.042639
0.016947
0.071854
0.098916
0.099065
0.096440
0.097813
0.095828
0.060427
0.014499
-0.029667
-0.078471
-0.121529
-0.158112
-0.187567
-0.191116
-0.178005
-0.157865
-0.125813
-0.076332
-0.038145
0.003255
0.043692
0.074235
0.090183
0.102660
0.099559
0.090329
0.064727
0.024780
-0.020091
-0.074188
-0.124824
-0.151370
-0.171107
-0.186090
-0.176785
-0.165121
-0.126914
-0.078017
-0.036259
-0.002040
0.054620
0.087413
0.110875
0.116314
0.102139
0.087255
0.051422
0.006741
-0.036961
-0.087082
-0.131573
-0.156905
-0.179332
-0.192296
-0.190375
-0.145019
-0.114994
-0.090443
-0.047435
-0.011140
0.046862
0.083432
0.112583
0.113848
0.102196
0.076500
0.034208
-0.017571
-0.061747
-0.095520
-0.129280
-0.155580
-0.182333
-0.191154
-0.178365
-0.160402
-0.123090
-0.084091
-0.051807
0.001961
0.055189
0.073059
0.110120
0.107158
0.085930
0.065846
0.031111
-0.004162
-0.037293
-0.078570
-0.125389
-0.161126
-0.189545
-0.199750
-0.196239
-0.176191
-0.143126
-0.094104
-0.044252
0.003814
0.038553
0.069053
0.086435
0.087331
0.078214
0.074390
0.033892
-0.012638
-0.063883
-0.106153
-0.145838
-0.166374
-0.193413
-0.200256
-0.190158
-0.171213
-0.138809
-0.103551
-0.065177
-0.018562
0.034256
0.074022
0.087097
0.092326
0.078722
0.066702
0.049490
0.010797
-0.039749
-0.091546
-0.139510
-0.178917
-0.198679
-0.218558
-0.206823
-0.188050
-0.148244
-0.106893
-0.068116
-0.001302
0.044321
0.063162
0.086195
0.087421
0.073638
0.050146
0.036544
0.005923
-0.049854
-0.111366
-0.142249
-0.144359
-0.168757
-0.187831
-0.175990
-0.154992
-0.123822
-0.082432
-0.048125
0.003863
0.053867
0.101970
0.129215
0.127358
0.108089
0.107553
0.080082
0.032311
-0.003514
-0.045719
-0.097841
-0.132313
-0.159782
-0.164829
-0.158334
-0.140527
-0.104444
-0.065091
-0.024958
0.010759
0.070983
0.106864
0.125667
0.137440
0.126912
0.099532
0.073868
0.038669
-0.002381
-0.055159
-0.091374
-0.124288
-0.145786
-0.150296
-0.144649
-0.128585
-0.082365
-0.049734
-0.001527
0.045908
0.079734
0.103045
0.130505
0.140136
0.136264
0.109700
0.084296
0.044035
0.001241
-0.047563
-0.094307
-0.142529
-0.167701
-0.166095
-0.175165
-0.173280
-0.145254
-0.102418
-0.068236
-0.012115
0.056696
0.085586
0.086614
0.089742
0.078832
0.068487
0.039291
0.008406
-0.040401
-0.085699
-0.132682
-0.175071
-0.211498
-0.218505
-0.202666
-0.180622
-0.151988
-0.108897
-0.061692
-0.023918
0.021184
0.047101
0.058100
0.063411
0.051322
0.023351
-0.004640
-0.042590
-0.076357
-0.126787
-0.159986
-0.197197
-0.223871
-0.230556
-0.223770
-0.203183
-0.162928
-0.132372
-0.082957
-0.042168
0.003784
0.037295
0.062318
0.063789
0.062392
0.032259
0.003079
-0.035071
-0.081460
-0.130514
-0.179073
-0.202926
-0.215425
-0.230642
-0.231207
-0.203422
-0.159343
-0.126857
-0.087209
-0.035226
-0.000710
0.028990
0.056149
0.065503
0.064874
0.053081
0.017298
-0.015182
-0.066047
-0.118911
-0.160625
-0.187172
-0.225040
-0.229922
-0.232473
-0.207534
-0.180153
-0.133693
-0.081822
-0.037340
-0.007984
0.023131
0.041895
0.054636
0.039126
0.010856
-0.012641
-0.046411
-0.086483
-0.131216
-0.147497
-0.172166
-0.188597
-0.198421
-0.190536
-0.139962
-0.074460
-0.024544
0.033825
0.083474
0.128491
0.161811
0.215668
0.247055
0.251862
0.264177
0.267701
0.256916
0.249586
0.237963
0.244320
0.239552
0.252648
0.282095
0.305237
0.353231
0.425320
0.515913
0.599731
0.676743
0.753598
0.839659
0.895094
0.902161
0.893447
0.867327
0.813958
0.763496
0.687798
0.619623
0.552850
0.467078
0.371432
0.300742
0.246649
0.209839
0.196108
0.179265
0.177310
0.181121
0.206844
0.236133
0.257901
0.269976
0.243207
0.213373
0.183519
0.133603
0.069623
0.012074
-0.033246
-0.082838
-0.105491
-0.119589
-0.116798
-0.103981
-0.089867
-0.067359
-0.022652
0.032204
0.080831
0.121740
0.136157
0.139040
0.135297
0.110790
0.072327
0.035516
-0.008408
-0.053799
-0.088523
-0.133240
-0.160027
-0.163569
-0.156671
-0.140686
-0.108201
-0.080591
-0.040959
0.009013
0.049785
0.088405
0.105383
0.109603
0.109085
0.078981
0.048826
0.014882
-0.030958
-0.070709
-0.111793
-0.154235
-0.175229
-0.190912
-0.186099
-0.148572
-0.108593
-0.079904
-0.045458
0.003229
0.043051
0.096328
0.116141
0.121617
0.124567
0.092544
0.065945
0.046497
-0.014916
-0.066194
-0.093575
-0.140927
-0.166275
-0.170992
-0.150853
-0.126584
-0.109687
-0.072444
-0.015139
0.035216
0.061497
0.097252
0.126227
0.152133
0.141247
0.111593
0.081490
0.050569
0.001630
-0.042833
-0.072041
-0.113039
-0.138103
-0.149900
-0.144347
-0.132074
-0.103268
-0.066211
0.007494
0.060639
0.112166
0.145248
0.159618
0.166535
0.170201
0.151533
0.126357
0.079989
0.026951
-0.023156
-0.049735
-0.088339
-0.105692
-0.108623
-0.101131
-0.079809
-0.052121
-0.006526
0.028626
0.077193
0.123155
0.160537
0.183680
0.207469
0.187594
0.171685
0.135330
0.103020
0.064055
0.024950
-0.009042
-0.048569
-0.082930
-0.077225
-0.057076
-0.037079
-0.013459
0.027914
0.077296
0.125515
0.158746
0.200823
0.231005
0.234212
0.219203
0.203258
0.160158
0.117917
0.068796
0.036458
-0.006432
-0.044267
-0.066384
-0.080167
-0.067907
-0.045926
-0.005004
0.035730
0.072282
0.129362
0.170643
0.195501
0.214807
0.223661
0.218918
0.203663
0.166905
0.122190
0.083382
0.035340
-0.008232
-0.050570
-0.069460
-0.076942
-0.071570
-0.051187
-0.028809
0.008674
0.049999
0.110817
0.156239
0.184680
0.189122
0.195924
0.196756
0.185029
0.148372
0.103308
0.044441
0.016247
-0.029851
-0.068522
-0.091225
-0.108394
-0.098146
-0.072967
-0.052936
-0.020198
0.017934
0.053767
0.101215
0.143417
0.149185
0.160314
0.161791
0.134794
0.096250
0.064932
0.019317
-0.020124
-0.062378
-0.102375
-0.135524
-0.156680
-0.131237
-0.111806
-0.082323
-0.046817
-0.009920
0.024636
0.061783
0.100172
0.116065
0.121229
0.116082
0.094633
0.065932
0.030503
-0.014550
-0.066843
-0.104146
-0.132558
-0.156962
-0.168555
-0.166403
-0.150742
-0.124909
-0.084634
-0.038786
0.006932
0.046335
0.079694
0.092837
0.111661
0.112312
0.073167
0.027256
-0.006490
-0.030338
-0.077419
-0.117962
-0.153373
-0.177759
-0.184765
-0.185127
-0.161498
-0.134695
-0.085132
-0.040864
-0.002295
0.040778
0.079650
0.103885
0.108944
0.098585
0.081426
0.042671
-0.000144
-0.029279
-0.072494
-0.131161
-0.171699
-0.178436
-0.191857
-0.180353
-0.152656
-0.130318
-0.085205
-0.039008
0.011472
0.051122
0.080886
0.104016
0.111165
0.101766
0.088010
0.064565
0.017845
-0.021247
-0.063595
-0.107956
-0.135958
-0.156396
-0.183294
-0.174260
-0.142548
-0.112895
-0.075179
-0.033486
0.006920
0.064407
0.098581
0.123267
0.125450
0.109950
0.084769
0.051275
0.026280
-0.001301
-0.061497
-0.121451
-0.149273
-0.169260
-0.177232
-0.160036
-0.135869
-0.103439
-0.056223
-0.025402
0.020454
0.058639
0.083420
0.103854
0.116074
0.120366
0.109274
0.069959
0.018549
-0.021388
-0.070084
-0.107066
-0.139971
-0.160205
-0.168427
-0.161379
-0.146065
-0.117356
-0.078712
-0.043635
0.000156
0.061297
0.095429
0.111508
0.131767
0.127036
0.098908
0.059493
0.020947
-0.014584
-0.064579
-0.107344
-0.140962
-0.161309
-0.174072
-0.177279
-0.148058
-0.116105
-0.073236
-0.034323
0.006603
0.055344
0.083953
0.108426
0.118470
0.110545
0.089583
0.063756
0.017741
-0.022760
-0.069836
-0.099922
-0.136549
-0.165911
-0.174386
-0.172224
-0.150091
-0.127334
-0.086157
-0.035666
0.014820
0.053955
0.063178
0.080514
0.102617
0.108998
0.080776
0.048327
0.008766
-0.045876
-0.077356
-0.105378
-0.141976
-0.168394
-0.173868
-0.165206
-0.149855
-0.122546
-0.077514
-0.037703
0.003348
0.041697
0.088739
0.101457
0.112542
0.109685
0.087703
0.035709
0.007113
-0.035243
-0.091262
-0.129043
-0.167064
-0.195048
-0.210750
-0.191587
-0.158699
-0.119047
-0.090564
-0.049022
0.007275
0.048287
0.070713
0.106306
0.119785
0.092227
0.070831
0.032870
-0.002106
-0.023398
-0.066408
-0.105554
-0.148999
-0.179005
-0.191977
-0.194572
-0.180453
-0.149284
-0.102557
-0.056288
-0.015301
0.032952
0.064882
0.093170
0.123393
0.108425
0.078637
0.047256
0.003221
-0.017888
-0.061895
-0.112729
-0.146421
-0.180784
-0.173913
-0.162361
-0.149140
-0.116955
-0.064495
-0.025737
0.017478
0.073321
0.095448
0.112310
0.125374
0.122871
0.112494
0.080721
0.043504
0.004222
-0.050140
-0.091700
-0.116739
-0.140443
-0.144251
-0.140643
-0.127939
-0.101742
-0.070592
-0.034728
0.027622
0.077322
0.099708
0.125818
0.146244
0.138112
0.111450
0.074702
0.036265
0.002792
-0.034551
-0.078559
-0.110778
-0.121719
-0.126249
-0.131241
-0.107912
-0.077200
-0.045770
-0.021422
0.036066
0.098853
0.128609
0.149280
0.162256
0.149163
0.110038
0.072056
0.040683
-0.000134
-0.047353
-0.081121
-0.115308
-0.147048
-0.159896
-0.168775
-0.143342
-0.109319
-0.078012
-0.042931
0.004304
0.050616
0.074974
0.105589
0.122083
0.102478
0.072255
0.043521
0.010195
-0.017035
-0.077476
-0.129368
-0.158210
-0.183417
-0.195055
-0.198184
-0.178933
-0.159678
-0.116533
-0.068734
-0.026452
0.020526
0.059018
0.078839
0.084161
0.072400
0.047093
0.016072
-0.018481
-0.045455
-0.101878
-0.154531
-0.193746
-0.215670
-0.217384
-0.206883
-0.197864
-0.168976
-0.118695
-0.074160
-0.042331
0.011905
0.044883
0.076441
0.081122
0.070248
0.041742
0.019636
-0.017911
-0.062265
-0.115072
-0.160741
-0.198166
-0.212135
-0.210481
-0.208828
-0.188143
-0.156015
-0.109675
-0.069336
-0.031586
0.018617
0.042729
0.069496
0.083908
0.072970
0.049705
0.017137
-0.012628
-0.066110
-0.113082
-0.160225
-0.196636
-0.226210
-0.233676
-0.212186
-0.187186
-0.153667
-0.120250
-0.088584
-0.043369
-0.000875
0.037723
0.069642
0.078446
0.063894
0.041153
0.003396
-0.027581
-0.062775
-0.107904
-0.155734
-0.194702
-0.202525
-0.198327
-0.177497
-0.141115
-0.108732
-0.067775
-0.016985
0.032432
0.091156
0.159018
0.210393
0.212470
0.227680
0.228154
0.221038
0.204869
0.184492
0.170972
0.165439
0.170043
0.177787
0.215328
0.245706
0.313234
0.367012
0.437459
0.513092
0.607727
0.705839
0.756194
0.817056
0.847432
0.875839
0.869379
0.826439
0.778448
0.727493
0.650235
0.611582
0.565105
0.502363
0.451884
0.394497
0.347254
0.315843
0.303415
0.296542
0.300200
0.288654
0.284679
0.289616
0.284141
0.265036
0.239216
0.211377
0.155998
0.083203
0.044065
-0.013679
-0.067557
-0.096781
-0.110771
-0.111297
-0.095856
-0.077894
-0.033366
0.014296
0.055665
0.101569
0.138685
0.155312
0.167137
0.154971
0.131149
0.082669
0.026770
-0.016154
-0.062784
-0.091909
-0.117473
-0.138834
-0.153493
-0.166020
-0.150373
-0.115912
-0.084721
-0.022028
0.019015
0.042012
0.073586
0.112745
0.112011
0.104762
0.087538
0.061100
0.020984
-0.036991
-0.075620
-0.110518
-0.144020
-0.166190
-0.178123
-0.160562
-0.141821
-0.109089
-0.064246
-0.028876
0.025610
0.062241
0.077439
0.100749
0.117268
0.118173
0.102802
0.058959
0.007387
-0.027652
-0.053125
-0.100724
-0.128500
-0.158537
-0.164826
-0.155627
-0.147647
-0.105962
-0.068777
-0.020732
0.030886
0.069442
0.101179
0.127800
0.146371
0.139125
0.113717
0.086489
0.046873
0.002649
-0.039221
-0.089396
-0.121446
-0.137270
-0.142927
-0.130129
-0.119145
-0.084693
-0.035469
0.006219
0.049331
0.097546
0.125397
0.151405
0.164261
0.164091
0.140706
0.118095
0.066553
0.014839
-0.026957
-0.068540
-0.092578
-0.113124
-0.110011
-0.123249
-0.096503
-0.054861
-0.008669
0.023660
0.077221
0.122672
0.162247
0.192330
0.202000
0.204789
0.188164
0.147891
0.095656
0.052416
0.030212
-0.017954
-0.054079
-0.074561
-0.088352
-0.079740
-0.037674
-0.009580
0.029416
0.075500
0.114482
0.157553
0.196048
0.208879
0.216349
0.211498
0.185923
0.150082
0.125488
0.082245
0.032449
-0.006296
-0.034521
-0.053362
-0.062793
-0.057568
-0.035267
0.003955
0.041519
0.090505
0.125742
0.175986
0.201883
0.214128
0.226960
0.224841
0.198448
0.159863
0.130649
0.082189
0.028087
-0.009837
-0.050708
-0.084789
-0.086437
-0.072759
-0.059301
-0.017437
0.028907
0.066512
0.106112
0.154267
0.184831
0.198557
0.204558
0.201420
0.174046
0.130332
0.089878
0.054228
0.016126
-0.026309
-0.064565
-0.086228
-0.093809
-0.094334
-0.073638
-0.054526
-0.036429
0.028375
0.084567
0.124151
0.157824
0.160695
0.168976
0.161133
0.143131
0.123267
0.064402
0.006023
-0.031555
-0.086826
-0.115756
-0.131393
-0.133851
-0.133306
-0.111040
-0.090178
-0.056952
-0.010177
0.031258
0.073033
0.108068
0.115032
0.128479
0.121015
0.095390
0.070404
0.028294
-0.026179
-0.060672
-0.104093
-0.140956
-0.152189
-0.167033
-0.161551
-0.153434
-0.118641
-0.078653
-0.040206
-0.004714
0.044063
0.083120
0.093247
0.111277
0.110043
0.083270
0.050927
0.013329
-0.032301
-0.087931
-0.128340
-0.160314
-0.185250
-0.188802
-0.180891
-0.162181
-0.132616
-0.079334
-0.048913
-0.009578
0.045735
0.082245
0.112227
0.114417
0.098164
0.077849
0.044723
0.001735
-0.049711
-0.088084
-0.122562
-0.165558
-0.185266
-0.189630
-0.175779
-0.154492
-0.125013
-0.084387
-0.040059
-0.000804
0.050797
0.083162
0.101735
0.115692
0.109955
0.092925
0.069504
0.015514
-0.031971
-0.077191
-0.125221
-0.156476
-0.166620
-0.180187
-0.173962
-0.157434
-0.125765
-0.091159
-0.039311
0.014647
0.059528
0.091540
0.115176
0.117017
0.111736
0.084634
0.048736
0.021159
-0.011871
-0.060865
-0.096558
-0.135487
-0.161005
-0.174555
-0.166034
-0.141721
-0.113522
-0.072681
-0.032598
0.020416
0.060723
0.088538
0.102066
0.108668
0.107636
0.087322
0.056184
0.008712
-0.023892
-0.049947
-0.094104
-0.135039
-0.163356
-0.175261
-0.166737
-0.148377
-0.110591
-0.073559
-0.021778
0.015396
0.062973
0.092420
0.104038
0.114604
0.115875
0.094939
0.054662
0.011767
-0.015989
-0.058549
-0.111216
-0.130615
-0.150668
-0.186329
-0.167540
-0.144666
-0.106570
-0.075445
-0.042718
0.002179
0.047357
0.086523
0.113227
0.113241
0.110761
0.083795
0.046504
0.010028
-0.039746
-0.075944
-0.100625
-0.137677
-0.162447
-0.183252
-0.163337
-0.147617
-0.119379
-0.081177
-0.037116
0.013235
0.037025
0.072407
0.088678
0.104355
0.101453
0.095885
0.044228
-0.015809
-0.051336
-0.082715
-0.119676
-0.144499
-0.170118
-0.181960
-0.165272
-0.148625
-0.125511
-0.095547
-0.049321
0.006973
0.041523
0.083814
0.092986
0.107792
0.092997
0.070455
0.035030
-0.004631
-0.058721
-0.088366
-0.126158
-0.174613
-0.195273
-0.209852
-0.197232
-0.165029
-0.125269
-0.080392
-0.040781
0.003425
0.041390
0.070168
0.100091
0.110473
0.103270
0.083043
0.052551
0.007784
-0.046343
-0.103686
-0.136520
-0.177188
-0.199075
-0.196689
-0.183453
-0.163945
-0.130576
-0.092575
-0.047247
-0.009647
0.029023
0.063705
0.084459
0.079418
0.081473
0.071022
0.041390
0.002340
-0.046652
-0.089711
-0.129528
-0.160847
-0.192071
-0.208021
-0.215600
-0.164246
-0.120786
-0.093049
-0.053302
-0.002798
0.028067
0.072335
0.094699
0.106500
0.089113
0.076152
0.045811
0.025618
-0.017275
-0.060892
-0.105776
-0.132988
-0.160434
-0.170110
-0.162533
-0.134361
-0.099322
-0.072747
-0.033761
0.026273
0.068803
0.101658
0.129661
0.138539
0.129331
0.110537
0.071620
0.027504
-0.011364
-0.054760
-0.085279
-0.116761
-0.149983
-0.162852
-0.160589
-0.145699
-0.100340
-0.063219
-0.006448
0.039937
0.081740
0.112370
0.140576
0.153687
0.145949
0.123805
0.089964
0.044450
0.001453
-0.041819
-0.073253
-0.106800
-0.134360
-0.134775
-0.134026
-0.127237
-0.092637
-0.056589
-0.006385
0.038023
0.067656
0.094024
0.114772
0.141935
0.121350
0.097189
0.055725
0.016806
-0.030883
-0.068898
-0.112666
-0.159786
-0.190768
-0.190680
-0.178617
-0.152247
-0.135528
-0.100798
-0.053726
0.004158
0.037310
0.068080
0.078543
0.079284
0.083947
0.062320
0.030230
-0.016584
-0.054781
-0.106736
-0.145150
-0.173894
-0.191487
-0.218221
-0.208494
-0.195142
-0.162845
-0.123650
-0.071369
-0.034475
0.008114
0.053949
0.081465
0.083066
0.069901
0.043757
0.007892
-0.025554
-0.065976
-0.115607
-0.163380
-0.213581
-0.218891
-0.207152
-0.205414
-0.184025
-0.147184
-0.116844
-0.080443
-0.036743
0.012719
0.039685
0.062569
0.059806
0.064548
0.052499
0.013232
-0.028091
-0.074531
-0.121953
-0.162896
-0.192338
-0.213227
-0.221637
-0.218637
-0.188681
-0.163540
-0.117520
-0.071622
-0.022388
0.010653
0.048750
0.063735
0.069993
0.056537
0.034866
-0.002021
-0.028850
-0.064246
-0.105315
-0.146666
-0.187144
-0.207808
-0.222303
-0.222059
-0.202692
-0.166188
-0.129098
-0.085132
-0.035517
-0.004655
0.032243
0.057000
0.064014
0.057229
0.054302
0.027250
-0.006516
-0.040263
-0.068815
-0.081069
-0.122291
-0.121630
-0.111112
-0.096478
-0.062214
-0.021074
0.029346
0.102527
0.173034
0.228862
0.277564
0.328073
0.360577
0.392510
0.414288
0.426004
0.426622
0.428028
0.410703
0.412997
0.415047
0.427348
0.466811
0.491302
0.547676
0.612412
0.665559
0.717594
0.764944
0.812659
0.844717
0.853937
0.844717
0.796580
0.740919
0.670705
0.571396
0.465367
0.347379
0.252788
0.188226
0.111222
0.059151
0.011948
0.031078
0.053406
0.074813
0.103161
0.149102
0.179635
0.203116
0.223693
0.213290
0.206164
0.177091
0.134727
0.092179
0.038002
-0.020222
-0.061350
-0.105729
-0.138911
-0.140802
-0.135212
-0.119043
-0.084816
-0.052653
-0.006547
0.044969
0.076892
0.104601
0.134752
0.142971
0.122307
0.111620
0.083780
0.023607
-0.034655
-0.078445
-0.116504
-0.150294
-0.159179
-0.172512
-0.169304
-0.150644
-0.119879
-0.080531
-0.033530
0.013354
0.045261
0.074430
0.107135
0.111636
0.103908
0.082682
0.053192
0.008230
-0.029729
-0.068911
-0.113097
-0.131215
-0.147601
-0.158195
-0.171129
-0.140460
-0.105959
-0.066945
-0.026171
0.017941
0.057636
0.087872
0.112659
0.123402
0.115373
0.101386
0.065083
0.018641
-0.027552
-0.059135
-0.092473
-0.121538
-0.154359
-0.157327
-0.152246
-0.121940
-0.085717
-0.050506
-0.002689
0.049504
0.085768
0.108280
0.129360
0.143765
0.155569
0.130902
0.101593
0.057981
0.017345
-0.025596
-0.078432
-0.121790
-0.145313
-0.138405
-0.134279
-0.114215
-0.067432
-0.023877
0.003523
0.035912
0.100690
0.154827
0.172589
0.187035
0.172446
0.149469
0.115283
0.091743
0.049952
0.000480
-0.040904
-0.068489
-0.092106
-0.095827
-0.093008
-0.074436
-0.037496
-0.001533
0.033850
0.096067
0.141959
0.181528
0.191027
0.196913
0.193110
0.170698
0.142136
0.106876
0.059740
0.024552
-0.005386
-0.037416
-0.072673
-0.075912
-0.059145
-0.042726
-0.007844
0.036388
0.082432
0.128664
0.154059
0.186784
0.207948
0.208109
0.193141
0.170965
0.159015
0.115950
0.081362
0.031765
-0.004528
-0.026056
-0.040091
-0.041940
-0.052675
-0.041218
-0.001222
0.031180
0.086451
0.125705
0.163436
0.186619
0.206937
0.211592
0.201819
0.188041
0.150328
0.109375
0.067606
0.021274
-0.034325
-0.069903
-0.084136
-0.087499
-0.087907
-0.072779
-0.031316
0.018076
0.051395
0.104679
0.146612
0.178256
0.184444
0.191483
0.193185
0.170195
0.124432
0.084751
0.046722
-0.002234
-0.063771
-0.083266
-0.098386
-0.114338
-0.109156
-0.092412
-0.059606
-0.033503
0.017020
0.062303
0.105078
0.124120
0.145002
0.156193
0.145516
0.127702
0.107434
0.068128
0.001954
-0.056631
-0.092129
-0.121018
-0.150678
-0.165190
-0.152309
-0.122946
-0.091780
-0.054806
-0.012457
0.033292
0.072403
0.103910
0.120740
0.121105
0.111255
0.091269
0.057237
0.007203
-0.036289
-0.064617
-0.111903
-0.141537
-0.176788
-0.184247
-0.185312
-0.156081
-0.119275
-0.084768
-0.036310
0.020178
0.061425
0.080942
0.103084
0.101981
0.091424
0.083109
0.042126
-0.005778
-0.052140
-0.096711
-0.124615
-0.153244
-0.172097
-0.175898
-0.179548
-0.162897
-0.136457
-0.094840
-0.043368
-0.003486
0.055104
0.084006
0.101417
0.096736
0.091348
0.077631
0.053078
0.016478
-0.040909
-0.080968
-0.126192
-0.165404
-0.180511
-0.188543
-0.173822
-0.147623
-0.112092
-0.074847
-0.024417
0.019012
0.057201
0.086156
0.109805
0.103327
0.112801
0.079260
0.058308
0.015940
-0.036230
-0.082216
-0.130780
-0.140288
-0.156797
-0.158284
-0.157833
-0.149899
-0.112549
-0.067711
-0.023053
0.009522
0.053591
0.088268
0.103118
0.120997
0.120928
0.100515
0.058457
0.018958
-0.021987
-0.069328
-0.112185
-0.135577
-0.145278
-0.158007
-0.156512
-0.129943
-0.101078
-0.068395
-0.017365
0.031431
0.062635
0.065492
0.099412
0.114585
0.109675
0.086077
0.050582
0.006043
-0.040599
-0.081127
-0.112002
-0.135000
-0.168984
-0.183873
-0.174667
-0.154336
-0.120927
-0.074884
-0.026888
0.017579
0.072134
0.101361
0.117188
0.124758
0.114176
0.092329
0.060028
0.012184
-0.030756
-0.077459
-0.120088
-0.150604
-0.174297
-0.184399
-0.179395
-0.151161
-0.111189
-0.072067
-0.032797
0.011686
0.053935
0.075633
0.104263
0.116189
0.109202
0.085632
0.052876
0.008789
-0.042494
-0.083785
-0.136561
-0.166466
-0.183885
-0.182134
-0.164464
-0.148258
-0.126999
-0.089887
-0.038723
0.003135
0.041518
0.071634
0.095556
0.102142
0.094141
0.072057
0.042138
-0.001480
-0.046766
-0.101101
-0.128030
-0.149828
-0.170971
-0.184245
-0.173612
-0.152191
-0.128581
-0.089913
-0.046171
-0.011685
0.037550
0.063331
0.083175
0.091723
0.081752
0.060093
0.028300
-0.011822
-0.046582
-0.082259
-0.118863
-0.164376
-0.188371
-0.202396
-0.187852
-0.172818
-0.140346
-0.104988
-0.067492
-0.014788
0.032294
0.063017
0.115177
0.110302
0.087672
0.057494
0.025042
-0.020134
-0.058190
-0.101852
-0.151985
-0.180149
-0.183673
-0.184748
-0.174897
-0.161360
-0.135394
-0.090211
-0.046214
0.001974
0.044251
0.068013
0.090904
0.098861
0.071197
0.055875
0.031742
-0.011612
-0.057739
-0.100523
-0.148338
-0.170291
-0.189681
-0.205175
-0.195663
-0.176271
-0.141543
-0.100421
-0.063733
-0.017105
0.038354
0.062107
0.086707
0.086944
0.079379
0.060274
0.044863
0.004138
-0.043601
-0.084258
-0.118722
-0.153999
-0.175041
-0.187096
-0.189853
-0.156017
-0.106579
-0.070462
-0.026689
0.020076
0.060729
0.088912
0.110216
0.109746
0.100469
0.098760
0.078947
0.033557
-0.014365
-0.064558
-0.118126
-0.149161
-0.186510
-0.185465
-0.164058
-0.125766
-0.090490
-0.061183
-0.019752
0.031564
0.067182
0.105148
0.116540
0.132090
0.127121
0.113191
0.082561
0.038114
-0.022082
-0.063001
-0.080903
-0.098870
-0.128777
-0.128395
-0.117858
-0.105273
-0.068880
-0.038927
-0.010631
0.043786
0.080850
0.113434
0.145154
0.143473
0.129352
0.104058
0.059033
0.004780
-0.033895
-0.090040
-0.121242
-0.129335
-0.155924
-0.180594
-0.176475
-0.160738
-0.128231
-0.084105
-0.041632
0.006145
0.044436
0.069983
0.086374
0.103108
0.091155
0.075344
0.027306
-0.009550
-0.057350
-0.101160
-0.143025
-0.193894
-0.204880
-0.205029
-0.212212
-0.185903
-0.140269
-0.106219
-0.062469
-0.030761
0.011281
0.042024
0.063511
0.061628
0.049972
0.036272
0.014878
-0.029044
-0.077280
-0.119103
-0.168244
-0.207222
-0.227504
-0.217142
-0.200747
-0.186907
-0.155998
-0.123978
-0.075302
-0.026693
0.010055
0.032850
0.062247
0.077826
0.061382
0.054449
0.004637
-0.042431
-0.077040
-0.132855
-0.174776
-0.204348
-0.208042
-0.225928
-0.218858
-0.196942
-0.168162
-0.143738
-0.073986
-0.025932
0.014736
0.037627
0.052171
0.059638
0.060896
0.040237
0.011419
-0.033847
-0.066943
-0.125925
-0.179801
-0.210905
-0.221685
-0.225185
-0.226036
-0.216644
-0.173003
-0.126736
-0.085167
-0.028382
0.012894
0.035884
0.058098
0.063269
0.056976
0.025148
-0.019671
-0.038645
-0.091926
-0.133636
-0.160220
-0.174686
-0.183815
-0.180103
-0.164590
-0.126761
-0.088813
-0.029907
0.042888
0.082418
0.131311
0.191251
0.231896
0.248875
0.260458
0.268970
0.253359
0.237038
0.234919
0.218236
0.218544
0.214933
0.239921
0.263653
0.301601
0.348568
0.417324
0.502020
0.597104
0.661925
0.737656
0.805583
0.849643
0.874734
0.850615
0.823386
0.779926
0.723466
0.653849
0.590320
0.517456
0.435906
0.344718
0.277064
0.223899
0.202474
0.186801
0.179986
0.172408
0.188580
0.211982
0.243293
0.245491
0.248578
0.223477
0.195649
0.146608
0.093550
0.059910
0.016469
-0.043795
-0.084843
-0.101892
-0.120243
-0.118098
-0.098083
-0.068856
-0.030248
-0.000233
0.039040
0.078404
0.109179
0.118011
0.136352
0.137835
0.113340
0.046338
0.008187
-0.024065
-0.067495
-0.107694
-0.134931
-0.159683
-0.174582
-0.167078
-0.140342
-0.113536
-0.088176
-0.033221
0.020367
0.068519
0.091257
0.096761
0.099113
0.086472
0.082295
0.051662
0.009282
-0.034363
-0.089597
-0.130964
-0.170619
-0.187433
-0.182645
-0.161996
-0.143898
-0.110126
-0.075110
-0.030119
0.018344
0.066061
0.106149
0.115532
0.124532
0.115726
0.084910
0.057486
0.011095
-0.032280
-0.069923
-0.106483
-0.141466
-0.162015
-0.168699
-0.160296
-0.135979
-0.112101
-0.064459
-0.007377
0.048488
0.086107
0.118895
0.129543
0.144537
0.127932
0.099965
0.076584
0.040922
-0.004223
-0.038405
-0.083919
-0.119158
-0.140901
-0.159005
-0.139248
-0.108871
-0.069382
-0.032261
0.005639
0.047240
0.089475
0.135937
0.157440
0.156314
0.151499
0.136675
0.113456
0.068878
0.026157
-0.024251
-0.061055
-0.090564
-0.097854
-0.108880
-0.101759
-0.080903
-0.049169
-0.017456
0.032223
0.077063
0.131516
0.150959
0.181226
0.193002
0.193984
0.168446
0.142752
0.102950
0.063824
0.022230
-0.022096
-0.047351
-0.073984
-0.073057
-0.079498
-0.058796
-0.028658
0.018892
0.078875
0.122091
0.171147
0.198084
0.214337
0.213453
0.199964
0.173007
0.148966
0.110917
0.061887
0.022953
-0.006313
-0.040284
-0.063401
-0.064275
-0.065337
-0.029145
-0.002268
0.030466
0.070956
0.110799
0.148523
0.181150
0.205354
0.223734
0.216450
0.193394
0.164611
0.119576
0.077141
0.025819
-0.023145
-0.061920
-0.073370
-0.087793
-0.077571
-0.035844
-0.013393
0.000892
0.049219
0.094160
0.141306
0.169755
0.185609
0.193931
0.184053
0.160308
0.146686
0.097923
0.034193
-0.010267
-0.044271
-0.081389
-0.105190
-0.109658
-0.102959
-0.086018
-0.046767
-0.004869
0.023908
0.065930
0.110093
0.144769
0.171524
0.171995
0.161448
0.133532
0.096295
0.058602
0.011717
-0.032961
-0.082449
-0.113979
-0.137228
-0.143407
-0.133539
-0.098386
-0.081765
-0.037192
-0.001185
0.036736
0.079717
0.112131
0.126785
0.136540
0.120688
0.101071
0.066690
0.021490
-0.026526
-0.073226
-0.111185
-0.152176
-0.173255
-0.172985
-0.157245
-0.148425
-0.124957
-0.081641
-0.031258
0.012898
0.048095
0.082655
0.103913
0.121669
0.105225
0.080261
0.051058
0.015295
-0.035252
-0.084088
-0.118998
-0.153508
-0.177444
-0.198359
-0.189467
-0.160860
-0.125018
-0.103667
-0.052162
-0.003328
0.054181
0.084647
0.097149
0.099162
0.087667
0.064721
0.041064
-0.002529
-0.045071
-0.088250
-0.127310
-0.164798
-0.191151
-0.188906
-0.168564
-0.146678
-0.120699
-0.068921
-0.022401
0.028061
0.067149
0.094458
0.109455
0.109371
0.081060
0.056040
0.048080
0.023007
-0.017193
-0.060881
-0.119924
-0.151702
-0.168468
-0.169129
-0.160675
-0.144505
-0.101499
-0.054495
-0.019080
0.013897
0.056619
0.089947
0.113086
0.124528
0.122653
0.090274
0.056764
0.019497
-0.027633
-0.090777
-0.114917
-0.137818
-0.164332
-0.173518
-0.171783
-0.160439
-0.125988
-0.082774
-0.016126
0.034982
0.065275
0.092740
0.117301
0.121064
0.107294
0.095770
0.078868
0.029719
-0.038856
-0.087154
-0.124258
-0.139723
-0.164053
-0.161992
-0.151213
-0.147304
-0.112872
-0.072394
-0.029019
0.022039
0.065031
0.103749
0.117427
0.120364
0.110846
0.092432
0.051144
0.009828
-0.037945
-0.074019
-0.122541
-0.161284
-0.159304
-0.157756
-0.158320
-0.138732
-0.107716
-0.062217
-0.039765
0.002134
0.071816
0.103425
0.106821
0.103781
0.098608
0.074016
0.048294
0.019842
-0.031796
-0.079960
-0.119996
-0.158748
-0.174986
-0.168567
-0.164914
-0.149450
-0.120611
-0.072367
-0.034652
0.015425
0.055538
0.084395
0.116389
0.120537
0.112229
0.083179
0.053183
-0.002317
-0.049758
-0.088239
-0.128404
-0.162539
-0.196194
-0.198881
-0.169745
-0.142772
-0.119288
-0.092405
-0.048730
-0.013579
0.039164
0.079621
0.104308
0.110602
0.106802
0.077777
0.038306
0.006186
-0.042122
-0.090550
-0.131195
-0.157758
-0.188988
-0.193106
-0.185509
-0.156132
-0.118383
-0.088807
-0.047409
-0.016118
0.028337
0.069258
0.082442
0.089962
0.099900
0.072959
0.047640
0.012838
-0.044512
-0.096983
-0.139936
-0.170079
-0.190939
-0.193075
-0.188063
-0.175320
-0.130524
-0.084964
-0.037836
0.019065
0.049251
0.069329
0.103656
0.099441
0.091036
0.065728
0.035494
-0.005250
-0.053850
-0.094936
-0.136362
-0.161056
-0.178685
-0.183548
-0.188246
-0.177222
-0.161446
-0.112012
-0.038427
0.012156
0.050159
0.077674
0.097632
0.102797
0.093996
0.072826
0.031667
-0.006244
-0.062555
-0.098258
-0.140692
-0.169130
-0.189376
-0.184292
-0.179664
-0.157059
-0.132353
-0.085702
-0.041207
0.005365
0.053207
0.078446
0.111683
0.106915
0.105406
0.093513
0.064363
0.025970
-0.021394
-0.059765
-0.107349
-0.146865
-0.166859
-0.157864
-0.148970
-0.122465
-0.099033
-0.055022
-0.009320
0.031005
0.069102
0.099466
0.132264
0.119094
0.099004
0.083042
0.067357
0.042307
-0.002527
-0.059649
-0.103514
-0.132371
-0.149908
-0.162842
-0.161245
-0.125859
-0.079942
-0.037748
0.023539
0.062491
0.100040
0.141886
0.162394
0.152918
0.149932
0.136463
0.095124
0.058109
0.026412
-0.022933
-0.068639
-0.106610
-0.139657
-0.153486
-0.148545
-0.117666
-0.099629
-0.063845
-0.019978
0.037085
0.073267
0.104844
0.121005
0.126989
0.110883
0.088514
0.050494
0.007199
-0.034010
-0.092733
-0.138449
-0.153407
-0.173441
-0.174735
-0.168298
-0.153638
-0.121974
-0.087090
-0.045923
-0.005071
0.043574
0.085690
0.099229
0.086377
0.087411
0.068581
0.035197
-0.018218
-0.055361
-0.117378
-0.158018
-0.190832
-0.205642
-0.209505
-0.220599
-0.185872
-0.145888
-0.117720
-0.078298
-0.027509
0.023784
0.062369
0.079165
0.068159
0.060849
0.049992
0.007997
-0.039205
-0.080606
-0.120989
-0.149201
-0.183122
-0.206908
-0.211521
-0.209127
-0.189433
-0.152576
-0.102230
-0.061292
-0.005222
0.041895
0.061422
0.077320
0.081177
0.064257
0.049428
0.007295
-0.030960
-0.081704
-0.125810
-0.162280
-0.192596
-0.206155
-0.211119
-0.200875
-0.174745
-0.137890
-0.099742
-0.062461
-0.015200
0.019511
0.047211
0.074574
0.082963
0.076337
0.053388
0.010841
-0.036111
-0.082831
-0.131050
-0.172438
-0.194199
-0.210315
-0.230572
-0.214964
-0.207660
-0.171311
-0.120711
-0.061398
-0.013529
0.032594
0.078461
0.100801
0.111761
0.124787
0.109044
0.075903
0.071569
0.039458
-0.001140
-0.023270
-0.049922
-0.060728
-0.045507
-0.020661
0.012635
0.064736
0.127987
0.202715
0.272052
0.331897
0.407871
0.469272
0.490419
0.515416
0.515843
0.510560
0.514955
0.505976
0.500747
0.492034
0.503853
0.504371
0.530491
0.539939
0.558465
0.591917
0.626160
0.651882
0.687287
0.702438
0.698062
0.663594
0.606488
0.546929
0.467570
0.375088
0.296637
0.195400
0.110001
0.038298
-0.006893
-0.043116
-0.066282
-0.065521
-0.057136
-0.023962
0.010435
0.048784
0.091256
0.124368
0.149701
0.172259
0.164952
0.141731
0.117123
0.090298
0.051877
0.013654
-0.034685
-0.075807
-0.121104
-0.136025
-0.144483
-0.131385
-0.121011
-0.079093
-0.048840
-0.007397
0.045085
0.083442
0.105383
0.123091
0.130537
0.120729
0.104210
0.066019
0.020545
-0.019175
-0.061916
-0.105864
-0.139770
-0.160932
-0.169289
-0.181391
-0.145906
-0.102685
-0.057136
-0.013448
0.034653
0.072473
0.100658
0.126952
0.128469
0.118607
0.098730
0.065127
0.012342
-0.021110
-0.069070
-0.112870
-0.132006
-0.152444
-0.159946
-0.154113
-0.125590
-0.085966
-0.035277
-0.003010
0.030600
0.080848
0.114557
0.125503
0.129690
0.132936
0.120639
0.088637
0.040131
0.003292
-0.049464
-0.078533
-0.112030
-0.134425
-0.147121
-0.135864
-0.126101
-0.086991
-0.034431
0.006743
0.042438
0.076709
0.124748
0.151604
0.165390
0.162321
0.141257
0.106630
0.058549
-0.006098
-0.041308
-0.071007
-0.095113
-0.109706
-0.121907
-0.112412
-0.082982
-0.046979
0.005016
0.039154
0.097445
0.146046
0.171384
0.188969
0.198832
0.185037
0.169198
0.133774
0.095659
0.050966
0.016305
-0.031727
-0.075677
-0.089070
-0.089217
-0.086008
-0.061134
-0.027066
0.021983
0.065007
0.108458
0.160846
0.196988
0.224151
0.232594
0.226287
0.208873
0.175341
0.125354
0.074968
0.027394
-0.002887
-0.045436
-0.061779
-0.074936
-0.066252
-0.044687
0.001062
0.053409
0.092317
0.139162
0.186886
0.212799
0.224860
0.231968
0.213152
0.203616
0.180596
0.132691
0.100337
0.064469
0.020397
-0.024529
-0.045162
-0.055454
-0.053865
-0.029960
0.006881
0.054185
0.096168
0.130213
0.167295
0.196632
0.214115
0.228120
0.208717
0.191943
0.146433
0.109956
0.075924
0.033161
-0.019062
-0.056474
-0.068991
-0.087320
-0.087992
-0.062533
-0.011074
0.042032
0.077554
0.114310
0.161965
0.195210
0.199948
0.200210
0.194156
0.173984
0.140588
0.097209
0.054589
-0.001847
-0.061959
-0.087069
-0.099544
-0.110101
-0.102469
-0.084724
-0.051182
-0.013388
0.026795
0.071261
0.117097
0.149810
0.155885
0.158289
0.151002
0.134921
0.112691
0.057197
0.008254
-0.036010
-0.087085
-0.128953
-0.139371
-0.151552
-0.150850
-0.126705
-0.090998
-0.050980
-0.013625
0.037184
0.071763
0.098111
0.126218
0.123312
0.107199
0.097828
0.062718
0.013035
-0.022972
-0.065318
-0.112423
-0.148707
-0.169481
-0.176973
-0.162039
-0.147862
-0.112194
-0.071496
-0.024971
0.013696
0.063655
0.088492
0.087759
0.091263
0.083246
0.077356
0.054481
0.003936
-0.044100
-0.085565
-0.132779
-0.161947
-0.177643
-0.178986
-0.153438
-0.148748
-0.112526
-0.065245
-0.019863
0.025587
0.062853
0.084937
0.104369
0.113795
0.094382
0.084360
0.041159
0.001409
-0.041418
-0.094242
-0.132882
-0.155713
-0.173763
-0.179836
-0.170101
-0.154378
-0.114986
-0.069660
-0.027883
0.017437
0.052776
0.091060
0.105658
0.105959
0.106686
0.098992
0.057866
0.010501
-0.035401
-0.085115
-0.112854
-0.143486
-0.169179
-0.178907
-0.164347
-0.144267
-0.110731
-0.064533
-0.019675
0.022469
0.060129
0.096811
0.114401
0.120855
0.101331
0.084347
0.053849
0.013891
-0.027717
-0.072666
-0.119250
-0.142583
-0.161825
-0.165819
-0.159407
-0.146455
-0.117435
-0.077832
-0.035743
0.024716
0.061262
0.082095
0.102032
0.123319
0.116574
0.092184
0.065196
0.005002
-0.041250
-0.090561
-0.139386
-0.162124
-0.182686
-0.177484
-0.170753
-0.162287
-0.119704
-0.063158
-0.016913
0.022778
0.057660
0.077503
0.091304
0.108291
0.092126
0.079270
0.052041
0.017167
-0.024854
-0.083405
-0.123800
-0.157001
-0.180387
-0.184160
-0.169816
-0.152603
-0.119679
-0.085610
-0.048437
-0.000591
0.041337
0.073395
0.106132
0.110072
0.104004
0.085332
0.042255
-0.008982
-0.054017
-0.092767
-0.142801
-0.162332
-0.181937
-0.194036
-0.187778
-0.162330
-0.127031
-0.080532
-0.037445
-0.005809
0.037252
0.065701
0.088884
0.100232
0.085310
0.062241
0.028703
-0.003238
-0.046417
-0.094332
-0.144144
-0.163264
-0.189820
-0.196191
-0.188922
-0.164042
-0.127528
-0.091092
-0.043939
0.005505
0.045608
0.074828
0.091071
0.090545
0.078330
0.053603
0.025536
-0.013726
-0.047481
-0.098497
-0.146026
-0.180774
-0.207829
-0.202543
-0.179416
-0.166419
-0.149277
-0.111217
-0.067522
-0.003859
0.044230
0.065939
0.088437
0.085311
0.085218
0.063097
0.031290
-0.014782
-0.060390
-0.110838
-0.151164
-0.185602
-0.208724
-0.209470
-0.198553
-0.169718
-0.130727
-0.095016
-0.061902
0.001632
0.036880
0.071791
0.087387
0.096062
0.092864
0.055646
0.028919
-0.003697
-0.049220
-0.095804
-0.134984
-0.161650
-0.179587
-0.182904
-0.174752
-0.153071
-0.126317
-0.085476
-0.036504
0.012893
0.053117
0.089686
0.119586
0.130868
0.121130
0.100220
0.049606
0.003595
-0.043079
-0.087107
-0.104248
-0.136594
-0.155036
-0.168228
-0.160525
-0.140145
-0.107277
-0.071996
-0.024393
0.021110
0.043042
0.074632
0.108791
0.119936
0.118040
0.106845
0.066791
0.039341
-0.001824
-0.046102
-0.091628
-0.135713
-0.154174
-0.147674
-0.136182
-0.111798
-0.077685
-0.033935
0.007028
0.046612
0.078448
0.117032
0.140130
0.131230
0.121408
0.086274
0.049413
0.013355
-0.029101
-0.080512
-0.116716
-0.154976
-0.180410
-0.205628
-0.183393
-0.153533
-0.127756
-0.081884
-0.033184
0.001187
0.044114
0.081736
0.097867
0.099295
0.093198
0.056321
0.012236
-0.025830
-0.065329
-0.116522
-0.163920
-0.203538
-0.216219
-0.218972
-0.215044
-0.194416
-0.156337
-0.110772
-0.064477
-0.016169
0.016405
0.053831
0.066728
0.072626
0.059194
0.034760
-0.013789
-0.046833
-0.087120
-0.146102
-0.181896
-0.206003
-0.208220
-0.228425
-0.229511
-0.194713
-0.158680
-0.122298
-0.080011
-0.030970
0.006626
0.036867
0.053252
0.062036
0.055335
0.026062
-0.003648
-0.041842
-0.088350
-0.127010
-0.178482
-0.225030
-0.250412
-0.219707
-0.196579
-0.197697
-0.161617
-0.116949
-0.073137
-0.020790
0.008707
0.041268
0.066166
0.067987
0.057439
0.024190
-0.003864
-0.048134
-0.091796
-0.134663
-0.172182
-0.207827
-0.227513
-0.239179
-0.218419
-0.192923
-0.165335
-0.135977
-0.086510
-0.037264
-0.000616
0.035616
0.055175
0.051799
0.045137
0.019553
-0.004054
-0.047467
-0.094100
-0.123325
-0.156017
-0.181291
-0.192940
-0.199499
-0.176825
-0.120354
-0.056653
-0.001393
0.047288
0.090378
0.152646
0.215275
0.256604
0.278216
0.294791
0.290695
0.284090
0.274875
0.259115
0.238262
0.225145
0.234951
0.238121
0.251206
0.293291
0.363472
0.418285
0.513383
0.587710
0.675931
0.742775
0.796037
0.822040
0.825460
0.821869
0.785744
0.745078
0.688115
0.614126
0.531998
0.432796
0.330938
0.259615
0.197504
0.152221
0.133334
0.111942
0.115484
0.132027
0.138915
0.144213
0.172527
0.193167
0.185198
0.178516
0.136958
0.111796
0.053193
0.007062
-0.030097
-0.068166
-0.108369
-0.125342
-0.134827
-0.122801
-0.106899
-0.087219
-0.036609
0.010835
0.036182
0.070406
0.107983
0.121671
0.117416
0.108215
0.097080
0.063575
0.003669
-0.051478
-0.100133
-0.149379
-0.155612
-0.177747
-0.184538
-0.183616
-0.142717
-0.114128
-0.070936
-0.028143
0.016603
0.057733
0.085028
0.106244
0.108417
0.097192
0.082381
0.047358
0.000604
-0.046946
-0.091246
-0.138468
-0.164193
-0.177780
-0.180931
-0.163135
-0.143488
-0.119526
-0.075165
-0.025265
0.009767
0.041593
0.092095
0.113478
0.116890
0.111654
0.084484
0.046302
0.007277
-0.048849
-0.080168
-0.117407
-0.138024
-0.144467
-0.144872
-0.149713
-0.132497
-0.098778
-0.054409
-0.007794
0.026124
0.068107
0.111713
0.129789
0.122948
0.121102
0.098943
0.068829
0.038843
-0.015729
-0.062026
-0.094831
-0.122750
-0.136079
-0.141712
-0.133732
-0.107060
-0.077523
-0.032233
0.016219
0.069407
0.111399
0.139555
0.165264
0.163329
0.150137
0.116265
0.081863
0.055864
0.013857
-0.022831
-0.060495
-0.103362
-0.118666
-0.117566
-0.111088
-0.090840
-0.052507
-0.000247
0.041886
0.084187
0.139024
0.179510
0.194860
0.195327
0.185548
0.154621
0.128111
0.091649
0.047171
0.000006
-0.051412
-0.082246
-0.087668
-0.092369
-0.084708
-0.050653
-0.023656
0.011530
0.063133
0.113602
0.155048
0.184773
0.212311
0.219607
0.218511
0.189560
0.151542
0.108509
0.057411
0.011094
-0.028448
-0.060076
-0.090120
-0.099203
-0.091870
-0.052793
-0.018142
0.027486
0.078371
0.112885
0.133450
0.174397
0.202731
0.212887
0.200022
0.184457
0.146339
0.094960
0.045374
0.002437
-0.035295
-0.068170
-0.096801
-0.091469
-0.086940
-0.073272
-0.044190
0.010228
0.057768
0.097648
0.143329
0.157175
0.175027
0.195334
0.187371
0.162456
0.124368
0.077651
0.027858
-0.026059
-0.062782
-0.092481
-0.112906
-0.127570
-0.119364
-0.099996
-0.060511
-0.023049
0.025096
0.060946
0.108711
0.137363
0.160120
0.157206
0.149917
0.120934
0.083296
0.055014
0.002911
-0.042442
-0.091902
-0.128715
-0.177859
-0.188168
-0.165656
-0.133474
-0.105819
-0.068480
-0.022151
0.016458
0.058804
0.096824
0.128226
0.129909
0.118520
0.092490
0.051216
0.018856
-0.032488
-0.074954
-0.123685
-0.175142
-0.192958
-0.190474
-0.173697
-0.152828
-0.124053
-0.079399
-0.043573
0.005844
0.044207
0.071124
0.107383
0.119239
0.096016
0.063572
0.017426
-0.017680
-0.064333
-0.106747
-0.153229
-0.170593
-0.192654
-0.198687
-0.178009
-0.166178
-0.138097
-0.084349
-0.036506
0.000850
0.042086
0.062423
0.085097
0.096844
0.093237
0.065414
0.022782
-0.018704
-0.051853
-0.100289
-0.148481
-0.176121
-0.210166
-0.197214
-0.178282
-0.158171
-0.128063
-0.090795
-0.043448
0.013780
0.053108
0.080747
0.093320
0.110185
0.109570
0.086185
0.041301
0.005104
-0.044316
-0.098064
-0.127883
-0.168535
-0.198213
-0.201325
-0.189670
-0.172855
-0.132461
-0.086094
-0.039549
0.008288
0.057331
0.085845
0.104395
0.115352
0.094529
0.079394
0.048357
-0.002823
-0.051652
-0.104044
-0.134642
-0.149203
-0.179888
-0.190538
-0.186289
-0.162986
-0.128991
-0.086736
-0.037850
0.014585
0.062338
0.081678
0.111356
0.120107
0.111759
0.079372
0.039707
-0.005970
-0.058026
-0.107275
-0.147861
-0.174616
-0.183474
-0.179909
-0.170216
-0.153436
-0.119977
-0.083744
-0.035767
0.012427
0.050691
0.090683
0.100997
0.110593
0.093401
0.081126
0.044482
0.012963
-0.042236
-0.093377
-0.134741
-0.155258
-0.178206
-0.180788
-0.177089
-0.160931
-0.131917
-0.078910
-0.043620
0.010819
0.040875
0.073688
0.109717
0.117479
0.098940
0.080199
0.036997
-0.005887
-0.051354
-0.100754
-0.142254
-0.171753
-0.191590
-0.206811
-0.193694
-0.191060
-0.161511
-0.101831
-0.056612
-0.002669
0.052058
0.059242
0.097707
0.106398
0.099739
0.073747
0.021614
-0.023574
-0.072409
-0.107767
-0.146272
-0.170478
-0.196207
-0.204159
-0.190208
-0.176008
-0.135523
-0.098443
-0.047589
-0.002743
0.035769
0.065841
0.091420
0.086972
0.068249
0.048904
0.010725
-0.040267
-0.061843
-0.099661
-0.150264
-0.180234
-0.195226
-0.200342
-0.202034
-0.176061
-0.133973
-0.095179
-0.058164
-0.013386
0.023896
0.053230
0.069840
0.082986
0.075544
0.052878
0.019498
-0.036793
-0.078584
-0.118419
-0.157990
-0.191078
-0.212998
-0.214747
-0.209288
-0.185737
-0.161313
-0.111936
-0.072977
-0.016421
0.029589
0.068798
0.086327
0.077485
0.080731
0.065712
0.023564
-0.027356
-0.081561
-0.131166
-0.164702
-0.191574
-0.213481
-0.216262
-0.199716
-0.187858
-0.154861
-0.111290
-0.065340
-0.008253
0.028049
0.060658
0.082075
0.080732
0.072950
0.040727
0.007445
-0.018880
-0.064672
-0.099213
-0.130669
-0.157250
-0.186064
-0.187235
-0.175678
-0.154416
-0.123868
-0.075361
-0.020587
0.024493
0.054082
0.078551
0.115961
0.117866
0.116285
0.087449
0.052361
0.017336
-0.036032
-0.081725
-0.122463
-0.153705
-0.175841
-0.184342
-0.178743
-0.144000
-0.113393
-0.075054
-0.025143
0.027180
0.062756
0.107379
0.133742
0.134264
0.123995
0.096781
0.052960
0.009642
-0.016267
-0.062193
-0.102747
-0.145086
-0.175897
-0.156943
-0.130034
-0.123621
-0.102655
-0.065754
-0.014076
0.021893
0.053087
0.097711
0.116124
0.123210
0.124819
0.090371
0.053144
0.014090
-0.039277
-0.107967
-0.156690
-0.185819
-0.215436
-0.203880
-0.206883
-0.199871
-0.143060
-0.090792
-0.050478
-0.007604
0.025392
0.064043
0.079844
0.087503
0.082419
0.057712
0.015477
-0.031725
-0.075834
-0.122914
-0.167531
-0.200297
-0.222595
-0.226979
-0.220356
-0.203492
-0.166599
-0.122764
-0.076113
-0.031077
0.005401
0.031885
0.055154
0.053312
0.027109
0.010161
-0.028394
-0.056344
-0.101599
-0.139479
-0.185745
-0.208197
-0.229878
-0.248541
-0.231815
-0.207313
-0.178430
-0.142762
-0.086111
-0.031811
0.005426
0.038257
0.054287
0.048383
0.041631
0.017139
-0.024989
-0.080694
-0.109737
-0.150922
-0.187380
-0.227234
-0.247229
-0.250239
-0.231992
-0.208315
-0.177615
-0.142613
-0.093513
-0.049193
0.000084
0.038269
0.058130
0.072917
0.061572
0.036776
-0.006096
-0.051387
-0.100223
-0.146519
-0.181858
-0.218187
-0.240020
-0.249114
-0.248848
-0.222122
-0.187343
-0.152423
-0.109737
-0.037435
-0.005728
0.014558
0.030170
0.048454
0.051740
0.027439
-0.006414
-0.041970
-0.074226
-0.118683
-0.144609
-0.150072
-0.148217
-0.159235
-0.152468
-0.098431
-0.058214
-0.008790
0.043931
0.122659
0.193575
0.244157
0.294351
0.331425
0.358614
0.366951
0.371160
0.366005
0.368802
0.355337
0.331397
0.325685
0.350930
0.385580
0.440839
0.496252
0.576818
0.666534
0.747085
0.800613
0.826408
0.862363
0.887146
0.868325
0.842122
0.801781
0.753950
0.663845
0.540582
0.420715
0.317110
0.229730
0.157482
0.101804
0.069367
0.029462
0.038687
0.076231
0.096356
0.139050
0.188290
0.211682
0.219140
0.219592
0.200755
0.172359
0.122561
0.059017
0.009804
-0.039733
-0.083500
-0.122384
-0.139445
-0.153049
-0.148243
-0.128320
-0.093123
-0.051047
-0.011393
0.034318
0.069855
0.090046
0.107729
0.104116
0.111311
0.088804
0.054213
0.004068
-0.049621
-0.096014
-0.126383
-0.157316
-0.191425
-0.201879
-0.197494
-0.171346
-0.125052
-0.075728
-0.034372
0.017692
0.050437
0.082107
0.102029
0.109369
0.085740
0.061919
0.037520
-0.015957
-0.051524
-0.099687
-0.130459
-0.167101
-0.186974
-0.204313
-0.191540
-0.156808
-0.123320
-0.082790
-0.037396
0.006804
0.055490
0.081233
0.093883
0.123990
0.121899
0.090868
0.058905
-0.000540
-0.048146
-0.096109
-0.122587
-0.149959
-0.185947
-0.189007
-0.177826
-0.141005
-0.108455
-0.069025
-0.038981
0.016368
0.073393
0.104819
0.135543
0.140142
0.124885
0.099259
0.071480
0.030244
-0.013007
-0.057234
-0.101142
-0.127148
-0.149930
-0.153260
-0.148319
-0.126891
-0.085207
-0.038425
0.008434
0.048453
0.094397
0.132742
0.156543
0.158300
0.153163
0.129155
0.096609
0.046214
0.010826
-0.030417
-0.070716
-0.101337
-0.114956
-0.115230
-0.113091
-0.094014
-0.052300
0.006014
0.047185
0.100550
0.143855
0.155068
0.176473
0.181127
0.183344
0.159295
0.118840
0.080820
0.044917
-0.000355
-0.029044
-0.045636
-0.079580
-0.093754
-0.082623
-0.064393
-0.025903
0.021885
0.066221
0.117909
0.164096
0.195945
0.222402
0.230994
0.219038
0.194127
0.151743
0.100147
0.050809
0.003608
-0.031262
-0.052136
-0.070600
-0.088175
-0.079533
-0.056382
-0.016064
0.024575
0.055839
0.128211
0.172656
0.184827
0.187999
0.208050
0.211786
0.185867
0.149184
0.092964
0.058841
0.016953
-0.032801
-0.069188
-0.088840
-0.100773
-0.103626
-0.084475
-0.038165
-0.004801
0.047465
0.112690
0.137236
0.159900
0.187361
0.187739
0.173406
0.157359
0.125467
0.078559
0.022310
-0.023974
-0.081043
-0.098548
-0.110992
-0.126759
-0.121122
-0.099320
-0.057855
-0.024513
0.008050
0.063575
0.099822
0.133401
0.146294
0.151767
0.149860
0.119984
0.080559
0.028071
-0.018634
-0.058188
-0.111731
-0.149847
-0.164216
-0.177010
-0.166967
-0.145003
-0.105448
-0.053445
-0.007601
0.032700
0.075098
0.094426
0.109710
0.110765
0.104359
0.071045
0.029155
-0.010628
-0.047718
-0.080480
-0.129334
-0.182478
-0.198226
-0.218430
-0.218905
-0.182184
-0.150534
-0.096011
-0.051988
0.006652
0.057806
0.086608
0.106869
0.113519
0.095121
0.066003
0.026903
-0.031887
-0.079770
-0.101598
-0.145380
-0.165635
-0.198595
-0.199566
-0.199701
-0.178989
-0.138799
-0.096895
-0.044197
0.005952
0.042591
0.077989
0.089719
0.099811
0.086301
0.070514
0.042999
-0.006174
-0.058036
-0.102128
-0.142654
-0.163424
-0.195445
-0.200476
-0.201106
-0.175934
-0.136016
-0.089977
-0.049264
-0.004359
0.057605
0.072160
0.098339
0.107949
0.097369
0.072535
0.042016
0.004437
-0.049921
-0.105758
-0.163015
-0.183923
-0.194730
-0.189853
-0.183027
-0.176212
-0.143067
-0.091629
-0.031423
0.010463
0.052439
0.083358
0.104598
0.117153
0.124293
0.088413
0.050923
0.000916
-0.044628
-0.102776
-0.135692
-0.157280
-0.176065
-0.182598
-0.187792
-0.167679
-0.116008
-0.086475
-0.043371
0.010014
0.053860
0.090082
0.116039
0.105204
0.093556
0.081753
0.050691
-0.009973
-0.034360
-0.081863
-0.129133
-0.153449
-0.180856
-0.185506
-0.183400
-0.163194
-0.123783
-0.081356
-0.024789
0.026356
0.060621
0.087264
0.103262
0.116850
0.106428
0.096049
0.058729
0.014378
-0.037158
-0.086512
-0.140450
-0.179024
-0.191729
-0.191062
-0.180140
-0.152517
-0.110120
-0.073801
-0.032533
0.010633
0.048067
0.080909
0.093335
0.101924
0.086607
0.073105
0.052630
0.015804
-0.037100
-0.079835
-0.122878
-0.177926
-0.203887
-0.207675
-0.190109
-0.160816
-0.132470
-0.098729
-0.053245
0.009796
0.054954
0.079975
0.094331
0.105921
0.106445
0.087057
0.057495
0.008711
-0.048537
-0.111074
-0.154424
-0.184932
-0.201556
-0.205495
-0.190201
-0.171679
-0.134361
-0.094202
-0.047352
-0.006240
0.035657
0.054853
0.078535
0.085710
0.071752
0.059660
0.034227
0.001897
-0.046305
-0.087166
-0.134753
-0.177758
-0.206224
-0.201292
-0.192119
-0.167574
-0.144817
-0.114707
-0.057892
-0.005457
0.032895
0.070555
0.092649
0.098330
0.083311
0.064924
0.033778
-0.008848
-0.075228
-0.117604
-0.152953
-0.185760
-0.206101
-0.203751
-0.193818
-0.186636
-0.141240
-0.105905
-0.050376
0.000694
0.043650
0.074874
0.093024
0.093588
0.106922
0.079679
0.043872
-0.005499
-0.055327
-0.102018
-0.139931
-0.174494
-0.190555
-0.197808
-0.193093
-0.169764
-0.134597
-0.088179
-0.023467
0.020590
0.061458
0.094067
0.121304
0.132227
0.116903
0.102195
0.067047
0.023182
-0.024458
-0.069357
-0.112906
-0.150089
-0.161299
-0.168358
-0.177138
-0.154106
-0.112020
-0.070518
-0.034924
0.004460
0.061586
0.098919
0.128318
0.122567
0.124987
0.104732
0.055468
0.027452
-0.003706
-0.040704
-0.087343
-0.120139
-0.136699
-0.146705
-0.149477
-0.124717
-0.084198
-0.043288
0.008854
0.045749
0.086753
0.128089
0.137848
0.132717
0.136372
0.103293
0.067899
0.025035
-0.033687
-0.077478
-0.107414
-0.145238
-0.170620
-0.179767
-0.172862
-0.157417
-0.122290
-0.090918
-0.039638
-0.008853
0.048541
0.088204
0.101391
0.101546
0.087171
0.070483
0.027955
-0.014651
-0.068997
-0.112421
-0.149634
-0.180566
-0.205627
-0.218981
-0.214955
-0.193800
-0.158694
-0.124803
-0.075402
-0.025389
0.033351
0.053285
0.079421
0.080650
0.061762
0.038769
0.014494
-0.031142
-0.088639
-0.132134
-0.165230
-0.217804
-0.236320
-0.231827
-0.217952
-0.203565
-0.179107
-0.136692
-0.094573
-0.042771
-0.004472
0.022541
0.050971
0.061459
0.061593
0.044779
0.010068
-0.047829
-0.090594
-0.132104
-0.168466
-0.215070
-0.224050
-0.240117
-0.229401
-0.208067
-0.169000
-0.119225
-0.063174
-0.018012
0.015128
0.053952
0.065356
0.072276
0.068795
0.040296
-0.001623
-0.041744
-0.091841
-0.137052
-0.179142
-0.214668
-0.238035
-0.237346
-0.212603
-0.200340
-0.169851
-0.123185
-0.078433
-0.021279
0.019251
0.053662
0.058339
0.043033
0.052933
0.034582
-0.009420
-0.052033
-0.086656
-0.129309
-0.175159
-0.204189
-0.221772
-0.211056
-0.180638
-0.145258
-0.111007
-0.065631
0.001994
0.068340
0.126254
0.152232
0.187516
0.217671
0.243654
0.242052
0.225584
0.204383
0.172859
0.170853
0.150519
0.156198
0.168928
0.193176
0.223645
0.298767
0.354518
0.413916
0.500954
0.601283
0.705731
0.788060
0.835566
0.863670
0.863965
0.840765
0.800258
0.749183
0.675438
0.616140
0.553685
0.496975
0.445163
0.372944
0.307262
0.269752
0.252899
0.254341
0.253699
0.243162
0.226415
0.241890
0.259235
0.265343
0.245978
0.212786
0.161340
0.112157
0.060145
0.014311
-0.046610
-0.091475
-0.124289
-0.130592
-0.119718
-0.101033
-0.078180
-0.028552
0.013855
0.068087
0.104924
0.128833
0.145088
0.152529
0.129487
0.098243
0.065916
0.034229
-0.022705
-0.065101
-0.110854
-0.147646
-0.175798
-0.184830
-0.176860
-0.152639
-0.116389
-0.079004
-0.031380
0.013498
0.062019
0.098365
0.109755
0.113782
0.105100
0.091631
0.064131
0.013885
-0.031670
-0.088950
-0.130131
-0.148951
-0.173711
-0.199874
-0.208524
-0.169074
-0.121287
-0.074887
-0.041379
0.005381
0.049963
0.081467
0.105093
0.123133
0.125037
0.093062
0.056470
0.022132
-0.015651
-0.069360
-0.125300
-0.160029
-0.172553
-0.175601
-0.156465
-0.148314
-0.120790
-0.081393
-0.009159
0.045046
0.092402
0.124058
0.141716
0.149271
0.131381
0.116973
0.078727
0.042670
0.000614
-0.054821
-0.091636
-0.114367
-0.139229
-0.144284
-0.142541
-0.124058
-0.084307
-0.037969
0.011419
0.062507
0.107112
0.139997
0.159956
0.169904
0.168786
0.136122
0.108552
0.073920
0.030213
-0.019122
-0.066886
-0.096580
-0.108381
-0.119863
-0.113817
-0.088936
-0.050826
0.000930
0.048024
0.103807
0.134487
0.169991
0.192407
0.204394
0.201353
0.176114
0.145864
0.108134
0.062482
0.010458
-0.021182
-0.042676
-0.060577
-0.077933
-0.078796
-0.060125
-0.046671
0.005435
0.061588
0.123876
0.174212
0.197536
0.212118
0.220361
0.219473
0.210445
0.185751
0.131661
0.076250
0.034258
-0.012452
-0.038018
-0.051100
-0.062466
-0.050084
-0.040508
-0.003087
0.040591
0.085640
0.147677
0.190078
0.220333
0.239237
0.232851
0.223556
0.196359
0.175564
0.126192
0.082120
0.024772
-0.012691
-0.052248
-0.073223
-0.074651
-0.060926
-0.037107
-0.008634
0.025436
0.069184
0.119834
0.162963
0.190261
0.216096
0.219389
0.215294
0.182138
0.140691
0.089061
0.045647
-0.007344
-0.035275
-0.071003
-0.090288
-0.100550
-0.102314
-0.085449
-0.043038
-0.002002
0.039859
0.088758
0.124308
0.152082
0.164232
0.190738
0.161000
0.127803
0.099437
0.056990
0.012943
-0.039596
-0.085009
-0.123990
-0.143530
-0.151776
-0.134026
-0.109345
-0.079058
-0.037327
-0.004933
0.040479
0.079099
0.115500
0.130534
0.135941
0.132992
0.111939
0.072703
0.021938
-0.029565
-0.071931
-0.111535
-0.152261
-0.172683
-0.173546
-0.167373
-0.148062
-0.107736
-0.075871
-0.028225
0.023456
0.056292
0.090883
0.112485
0.107497
0.107493
0.081698
0.050941
0.010767
-0.046149
-0.123169
-0.133629
-0.162209
-0.199635
-0.194627
-0.183480
-0.187134
-0.144146
-0.097851
-0.053695
0.005802
0.038849
0.088304
0.117866
0.111895
0.100872
0.085133
0.057801
0.014691
-0.033685
-0.099074
-0.154511
-0.178545
-0.196658
-0.190629
-0.184491
-0.167836
-0.133650
-0.089147
-0.045252
0.004836
0.044339
0.090268
0.113030
0.117513
0.106864
0.082181
0.042844
0.007859
-0.056752
-0.097446
-0.112089
-0.137845
-0.161010
-0.174025
-0.176542
-0.154454
-0.116492
-0.065298
-0.016030
0.020906
0.052703
0.074915
0.109765
0.115815
0.111724
0.083770
0.056313
0.012230
-0.039410
-0.075073
-0.106398
-0.161805
-0.178215
-0.182773
-0.172352
-0.136532
-0.116310
-0.073197
-0.028222
0.024434
0.065196
0.097764
0.118454
0.113219
0.107618
0.081154
0.046374
0.031651
-0.027107
-0.086576
-0.121571
-0.150017
-0.176051
-0.192504
-0.176098
-0.146279
-0.120983
-0.070324
-0.028780
0.029994
0.078251
0.107589
0.119441
0.121186
0.112532
0.092038
0.066148
0.006435
-0.041889
-0.076092
-0.128900
-0.160561
-0.173773
-0.173963
-0.178096
-0.145794
-0.109429
-0.082946
-0.025145
0.028577
0.059912
0.091868
0.112955
0.129784
0.113850
0.076242
0.041168
0.017430
-0.014010
-0.073735
-0.106555
-0.131310
-0.161239
-0.193377
-0.206985
-0.187506
-0.133581
-0.078776
-0.003196
0.019154
0.059750
0.078468
0.122129
0.123919
0.098250
0.077883
0.058012
0.047596
-0.020778
-0.087957
-0.132117
-0.156126
-0.190779
-0.186895
-0.193368
-0.161631
-0.127531
-0.077954
-0.026190
0.032166
0.062779
0.093150
0.119361
0.120023
0.100209
0.092485
0.039566
-0.001560
-0.050293
-0.105752
-0.130540
-0.164710
-0.195769
-0.192397
-0.178201
-0.160728
-0.131176
-0.068703
-0.019526
0.010712
0.046306
0.081869
0.106374
0.127037
0.108044
0.064302
0.027755
-0.017047
-0.060025
-0.096778
-0.124079
-0.157564
-0.197206
-0.194461
-0.177433
-0.143118
-0.100120
-0.074184
-0.052754
-0.026595
0.021683
0.047260
0.071456
0.100474
0.127425
0.099213
0.065824
0.020264
-0.044926
-0.111420
-0.148371
-0.187982
-0.192227
-0.188700
-0.166946
-0.156929
-0.130013
-0.083633
-0.044550
0.030426
0.074782
0.085282
0.107410
0.119912
0.119165
0.117630
0.074495
0.038625
0.000513
-0.040268
